Time [s],Gauge Pressure,Inspiratory differenrtial pressure,Expiratory differenrtial pressure
0,9659,8178,8185
0.0219430000000003,9659,8178,8182
0.027000000000001,9657,8178,8180
0.0281090000000006,9657,8181,8182
0.0329380000000015,9657,8178,8182
0.0441490000000009,9657,8181,8182
0.0531159999999993,9654,8181,8180
0.0645970000000027,9651,8181,8182
0.0709420000000023,9648,8181,8182
0.0821919999999992,9639,8178,8182
0.0895299999999999,9634,8178,8182
0.101549000000002,9631,8181,8180
0.111717000000002,9626,8178,8182
0.122194,9618,8181,8180
0.13288,9607,8181,8182
0.140817999999999,9599,8181,8182
0.150713,9593,8181,8182
0.160898,9588,8181,8180
0.171754,9582,8181,8182
0.182087000000003,9574,8181,8182
0.190803000000002,9564,8178,8182
0.202325999999999,9559,8178,8182
0.213616000000002,9556,8175,8182
0.222601000000001,9551,8178,8185
0.233653,9545,8175,8180
0.242065,9540,8178,8182
0.250999,9532,8178,8180
0.262344000000002,9529,8178,8180
0.273118,9521,8178,8180
0.282133000000002,9518,8175,8182
0.293659000000002,9513,8178,8180
0.302610000000001,9513,8178,8182
0.314216000000002,9510,8178,8182
0.320211,9510,8178,8180
0.331068999999999,9510,8175,8182
0.339797000000001,9510,8175,8182
0.353951000000002,9507,8178,8182
0.362902000000002,9507,8178,8180
0.371870000000001,9507,8178,8185
0.380843000000002,9505,8178,8182
0.392216000000001,9505,8178,8182
0.401237999999999,9507,8181,8182
0.412767000000002,9507,8178,8182
0.421711999999999,9510,8181,8182
0.433237999999999,9505,8178,8182
0.442164000000002,9505,8181,8182
0.451105999999999,9499,8178,8182
0.459835000000002,9499,8178,8182
0.471037000000003,9499,8178,8182
0.480797000000003,9494,8178,8185
0.49417,9490,8178,8182
0.500203000000003,9487,8178,8182
0.511299000000001,9485,8181,8182
0.521786000000002,9478,8181,8180
0.533277999999999,9478,8181,8185
0.539383000000001,9476,8183,8182
0.553065,9473,8181,8180
0.562015000000002,9459,8183,8182
0.570619000000001,9465,8183,8182
0.581072000000002,9462,8183,8182
0.590030000000002,9457,8183,8180
0.601227000000002,9454,8183,8182
0.612282,9451,8178,8180
0.620930000000001,9448,8181,8180
0.631963000000002,9443,8178,8180
0.640879000000002,9443,8178,8180
0.652081000000003,9440,8178,8180
0.661051,9435,8178,8180
0.672129000000002,9435,8181,8180
0.680682000000001,9432,8181,8185
0.692261000000002,9432,8181,8182
0.701155,9427,8178,8180
0.712467,9420,8181,8180
0.721516000000001,9412,8181,8182
0.732998000000002,9412,8181,8182
0.741212000000001,9404,8181,8182
0.749681000000002,9404,8178,8180
0.762816000000001,9399,8181,8182
0.771053999999999,9391,8181,8180
0.778841,9381,8181,8182
0.788455000000003,9376,8181,8182
0.800775000000002,9373,8181,8185
0.810937000000003,9363,8178,8185
0.819793000000001,9357,8178,8180
0.830603,9343,8178,8180
0.840459000000003,9334,8178,8180
0.850421000000001,9326,8175,8180
0.860618000000002,9318,8175,8182
0.870520000000003,9315,8175,8177
0.880335000000002,9302,8175,8185
0.890369,9293,8175,8180
0.899760000000001,9287,8175,8182
0.912049,9282,8175,8182
0.919312000000001,9270,8181,8185
0.928963,9265,8178,8182
0.940761000000002,9251,8178,8182
0.950597999999999,9240,8178,8180
0.960422000000001,9232,8178,8182
0.970220000000001,9221,8181,8180
0.97974,9200,8181,8180
0.989258,9173,8181,8177
1.001686,9149,8181,8180
1.009897,9118,8181,8177
1.019632,9077,8181,8180
1.029298,9004,8175,8180
1.041813,8960,8178,8180
1.049644,8926,8175,8182
1.060729,8889,8175,8180
1.071685,8852,8178,8182
1.08246,8813,8178,8180
1.090529,8783,8175,8180
1.100943,8753,8175,8180
1.111064,8713,8178,8180
1.121789,8678,8178,8180
1.130317,8632,8181,8180
1.138355,8592,8181,8180
1.1507,8546,8181,8182
1.158645,8511,8181,8182
1.171385,8484,8181,8180
1.17905,8463,8181,8182
1.189146,8450,8183,8180
1.198862,8431,8183,8182
1.2115,8414,8186,8180
1.219316,8398,8188,8180
1.229661,8379,8191,8180
1.240221,8353,8191,8180
1.251191,8331,8193,8180
1.259711,8312,8196,8180
1.27123,8288,8199,8180
1.281749,8276,8204,8180
1.290569,8244,8209,8180
1.302104,8198,8214,8177
1.311056,8185,8217,8182
1.321831,8182,8222,8180
1.332579,8171,8227,8182
1.341673,8168,8230,8180
1.347981,8152,8237,8182
1.359502,8144,8239,8180
1.367647,8136,8245,8180
1.379233,8131,8247,8177
1.390793,8133,8247,8177
1.399509,8120,8250,8182
1.410278,8117,8252,8187
1.421348,8103,8255,8185
1.430291,8112,8257,8177
1.441022,8092,8260,8177
1.45172,8069,8260,8180
1.460665,8061,8265,8185
1.471284,8053,8265,8180
1.480082,8053,8268,8182
1.491642,8069,8273,8185
1.500637,8094,8273,8180
1.511683,8066,8270,8185
1.519855,8045,8273,8177
1.528185,8061,8278,8180
1.541397,8133,8276,8180
1.548381,8031,8281,8177
1.559628,8053,8278,8177
1.570953,8039,8281,8180
1.582319,8050,8286,8174
1.588749,8061,8291,8177
1.602451,8072,8283,8174
1.608784,8061,8281,8182
1.619655,8069,8270,8180
1.630909,8092,8281,8185
1.639861,8072,8276,8182
1.65148,8103,8283,8180
1.66046,8077,8278,8169
1.672021,8085,8281,8174
1.678289,8077,8268,8180
1.689872,8088,8283,8174
1.698815,8083,8270,8177
1.710338,8072,8273,8185
1.719295,8122,8270,8180
1.73081,8103,8268,8185
1.739763,8114,8263,8187
1.751288,8133,8270,8182
1.762,8150,8260,8180
1.770985,8160,8263,8185
1.779952,8160,8255,8182
1.788931,8171,8260,8182
1.800328,8166,8252,8182
1.808933,8179,8250,8180
1.820575,8206,8250,8180
1.831112,8198,8250,8177
1.840067,8217,8252,8180
1.851619,8217,8242,8182
1.857993,8246,8242,8182
1.86907,8252,8239,8185
1.880026,8252,8239,8180
1.888989,8279,8232,8185
1.900365,8276,8232,8180
1.908438,8276,8230,8185
1.918747,8273,8230,8185
1.930251,8283,8230,8182
1.941629,8285,8230,8182
1.947984,8283,8227,8180
1.959065,8296,8224,8182
1.970584,8315,8224,8180
1.981882,8318,8222,8182
1.988261,8329,8219,8180
1.999753,8334,8219,8182
2.008694,8334,8217,8180
2.02022,8345,8212,8182
2.029196,8356,8214,8180
2.04063,8369,8212,8182
2.049697,8372,8209,8180
2.058703,8393,8209,8180
2.070243,8387,8206,8180
2.07923,8404,8201,8180
2.090816,8414,8201,8180
2.099795,8420,8199,8180
2.111331,8420,8199,8180
2.117311,8431,8196,8180
2.128811,8442,8196,8182
2.14034,8455,8193,8182
2.149122,8461,8191,8182
2.160657,8479,8191,8180
2.169545,8481,8191,8180
2.180669,8490,8188,8180
2.189659,8498,8186,8180
2.198098,8506,8183,8182
2.209602,8519,8183,8180
2.22113,8527,8181,8182
2.230072,8541,8181,8182
2.241652,8553,8181,8182
2.247731,8565,8178,8182
2.259247,8576,8178,8180
2.270575,8592,8178,8180
2.279046,8611,8178,8180
2.287997,8639,8178,8182
2.299014,8670,8178,8182
2.307959,8730,8193,8163
2.353229,8793,8159,8174
2.354243,8858,8178,8182
2.3547,8916,8178,8185
2.357282,8969,8178,8182
2.358528,9021,8178,8185
2.369469,9069,8181,8182
2.37831,9118,8181,8185
2.400547,9152,8181,8185
2.402186,9184,8181,8185
2.408761,9224,8181,8182
2.417179,9257,8183,8185
2.428104,9290,8181,8187
2.439089,9326,8183,8187
2.450131,9360,8183,8187
2.45909,9401,8183,8187
2.470624,9435,8181,8187
2.476694,9465,8181,8187
2.490663,9490,8183,8190
2.497046,9513,8175,8187
2.508241,9537,8175,8185
2.519438,9551,8178,8185
2.527302,9570,8175,8182
2.537487,9582,8175,8185
2.548883,9596,8178,8185
2.559422,9610,8175,8182
2.568284,9623,8175,8182
2.579832,9634,8178,8182
2.588798,9643,8175,8182
2.599431,9654,8178,8182
2.60988,9659,8181,8182
2.618296,9666,8181,8182
2.629892,9671,8178,8185
2.636263,9677,8181,8185
2.649892,9682,8178,8185
2.658839,9685,8181,8185
2.669909,9687,8181,8185
2.678856,9690,8181,8182
2.690401,9695,8181,8185
2.699351,9698,8181,8185
2.708085,9706,8175,8185
2.71698,9713,8178,8185
2.727531,9718,8178,8180
2.741326,9721,8178,8180
2.749714,9726,8178,8182
2.758244,9729,8178,8182
2.769676,9734,8178,8182
2.780427,9742,8175,8180
2.78946,9748,8175,8177
2.797686,9751,8175,8182
2.808573,9753,8181,8182
2.816703,9756,8178,8185
2.828017,9762,8178,8185
2.839128,9762,8181,8185
2.84774,9765,8178,8182
2.859269,9768,8178,8185
2.870483,9771,8178,8185
2.879428,9774,8178,8185
2.888171,9777,8178,8182
2.896814,9780,8178,8185
2.90793,9777,8175,8182
2.919508,9780,8175,8185
2.928445,9782,8175,8180
2.94259,9780,8175,8180
2.949501,9782,8175,8182
2.960186,9782,8175,8180
2.966687,9780,8175,8182
2.977557,9777,8178,8180
2.987963,9780,8175,8182
2.999349,9774,8178,8180
3.008303,9774,8178,8180
3.019597,9774,8178,8180
3.028553,9771,8178,8180
3.040064,9768,8178,8182
3.049048,9762,8175,8180
3.057987,9760,8178,8180
3.066722,9753,8175,8177
3.078362,9751,8178,8177
3.087332,9751,8175,8180
3.09897,9753,8178,8180
3.107909,9751,8178,8182
3.119447,9753,8178,8177
3.125469,9753,8178,8180
3.136709,9756,8181,8182
3.148185,9753,8178,8185
3.157118,9753,8178,8182
3.168306,9753,8178,8182
3.178848,9751,8178,8185
3.187851,9751,8178,8182
3.19923,9748,8181,8182
3.20738,9751,8181,8185
3.218389,9748,8178,8182
3.22685,9742,8178,8185
3.238113,9745,8178,8182
3.249546,9745,8181,8182
3.258363,9742,8178,8182
3.266982,9740,8178,8182
3.278562,9737,8178,8182
3.289766,9734,8178,8180
3.298756,9729,8178,8182
3.307724,9726,8181,8182
3.316721,9724,8181,8182
3.327377,9724,8181,8182
3.335874,9715,8178,8182
3.347534,9713,8178,8182
3.356503,9706,8178,8182
3.368029,9701,8181,8182
3.376387,9701,8178,8180
3.387504,9698,8178,8185
3.399019,9695,8178,8180
3.405372,9693,8178,8182
3.419498,9687,8178,8182
3.425868,9687,8178,8182
3.437398,9685,8175,8182
3.447783,9682,8178,8182
3.456794,9682,8178,8185
3.468332,9679,8175,8182
3.477298,9674,8175,8185
3.488507,9674,8178,8182
3.497431,9674,8175,8180
3.508947,9671,8178,8180
3.517733,9671,8175,8180
3.526477,9668,8175,8182
3.537503,9671,8181,8182
3.546249,9668,8181,8180
3.557329,9668,8178,8185
3.568449,9666,8178,8182
3.577391,9662,8181,8182
3.588911,9662,8181,8180
3.597849,9659,8178,8182
3.604176,9657,8181,8182
3.615668,9651,8181,8182
3.629188,9654,8178,8185
3.63813,9651,8181,8182
3.646967,9643,8178,8180
3.65596,9643,8175,8180
3.667186,9646,8175,8180
3.6761,9643,8178,8182
3.689613,9646,8175,8182
3.695968,9643,8178,8180
3.707501,9643,8175,8182
3.716434,9643,8178,8182
3.727936,9643,8178,8180
3.736179,9648,8178,8177
3.747794,9648,8178,8182
3.756711,9651,8178,8182
3.768438,9648,8181,8180
3.774863,9651,8178,8182
3.788633,9654,8178,8185
3.797628,9657,8181,8182
3.809191,9654,8181,8182
3.81557,9654,8178,8182
3.827105,9654,8181,8185
3.836036,9662,8181,8185
3.84759,9666,8181,8180
3.85653,9659,8181,8182
3.868012,9662,8178,8185
3.876483,9662,8178,8182
3.888006,9666,8178,8185
3.896545,9668,8178,8182
3.908115,9668,8178,8182
3.91702,9668,8178,8185
3.928189,9671,8181,8182
3.936911,9671,8178,8182
3.945378,9671,8181,8185
3.956874,9671,8178,8180
3.965857,9671,8178,8180
3.977408,9671,8175,8180
3.986247,9674,8178,8180
3.997803,9671,8178,8182
4.006802,9666,8175,8180
4.018345,9668,8178,8177
4.027282,9668,8175,8180
4.035869,9666,8178,8182
4.044812,9662,8178,8182
4.058673,9662,8175,8185
4.067268,9659,8175,8182
4.07988,9662,8175,8182
4.086223,9659,8178,8182
4.094803,9659,8178,8180
4.105996,9659,8178,8182
4.117088,9654,8175,8180
4.126024,9654,8175,8182
4.137571,9654,8175,8182
4.14863,9651,8178,8185
4.157604,9651,8178,8185
4.165659,9643,8178,8182
4.177166,9643,8178,8185
4.185584,9643,8178,8185
4.195803,9643,8178,8182
4.207359,9639,8181,8182
4.218095,9639,8178,8182
4.224536,9637,8178,8185
4.238541,9639,8181,8185
4.247823,9639,8178,8182
4.257751,9637,8181,8182
4.266811,9637,8178,8185
4.276152,9637,8178,8182
4.28469,9637,8175,8182
4.296233,9634,8178,8182
4.305223,9634,8175,8182
4.316775,9637,8178,8182
4.325744,9631,8178,8182
4.334711,9634,8178,8185
4.34532,9631,8178,8182
4.35691,9628,8175,8180
4.368453,9628,8175,8180
4.374833,9628,8181,8180
4.385554,9628,8181,8182
4.396798,9626,8181,8180
4.405346,9628,8178,8180
4.416878,9628,8178,8180
4.425029,9620,8178,8180
4.436248,9623,8178,8180
4.447787,9623,8178,8180
4.454166,9623,8178,8180
4.465284,9620,8178,8185
4.476818,9620,8178,8180
4.488148,9620,8178,8182
4.497092,9615,8178,8185
4.506178,9618,8178,8182
4.514678,9618,8178,8185
4.526193,9612,8181,8182
4.537628,9618,8178,8182
4.543985,9615,8181,8185
4.554928,9615,8181,8182
4.5639,9618,8178,8185
4.578017,9620,8181,8182
4.583563,9623,8178,8182
4.594888,9620,8178,8185
4.605896,9620,8181,8185
4.61702,9626,8178,8185
4.625966,9626,8178,8182
4.637032,9628,8178,8182
4.645975,9634,8178,8180
4.65704,9634,8178,8185
4.665569,9643,8178,8180
4.674529,9643,8178,8180
4.683469,9646,8181,8180
4.697568,9651,8178,8182
4.706653,9651,8178,8180
4.715382,9654,8178,8182
4.724315,9659,8181,8182
4.735844,9662,8181,8182
4.747265,9666,8178,8180
4.753472,9668,8178,8182
4.767081,9666,8181,8180
4.77613,9671,8181,8182
4.787536,9671,8178,8185
4.79395,9671,8178,8182
4.802889,9674,8178,8182
4.814432,9671,8178,8182
4.825944,9668,8178,8180
4.834888,9671,8178,8185
4.846456,9671,8178,8182
4.85542,9668,8181,8182
4.866973,9671,8181,8182
4.87593,9668,8181,8182
4.884919,9668,8181,8182
4.893871,9671,8178,8182
4.90542,9674,8175,8182
4.914417,9671,8178,8182
4.925968,9674,8178,8182
4.934545,9677,8178,8182
4.945259,9671,8175,8182
4.956067,9674,8175,8182
4.966351,9671,8178,8185
4.975301,9668,8178,8182
4.98645,9659,8175,8182
4.995408,9657,8178,8180
5.006571,9643,8178,8180
5.012286,9634,8178,8182
5.023028,9620,8178,8180
5.035984,9612,8181,8180
5.046715,9604,8178,8180
5.053098,9593,8178,8182
5.066979,9580,8178,8182
5.073353,9561,8181,8180
5.087247,9548,8178,8182
5.093601,9532,8181,8180
5.105121,9518,8181,8180
5.11409,9499,8181,8180
5.125623,9485,8178,8180
5.133767,9473,8181,8182
5.145299,9467,8181,8180
5.154271,9465,8181,8182
5.165801,9465,8181,8185
5.177295,9467,8181,8185
5.183704,9470,8181,8180
5.195223,9476,8181,8182
5.204221,9482,8181,8182
5.215763,9497,8181,8182
5.224708,9502,8181,8180
5.23628,9513,8178,8182
5.24519,9526,8178,8182
5.25693,9537,8178,8182
5.263412,9545,8181,8182
5.274928,9553,8181,8185
5.283209,9561,8181,8182
5.294388,9561,8181,8182
5.305556,9567,8181,8185
5.314028,9570,8181,8185
5.325596,9574,8178,8185
5.336789,9577,8181,8182
5.345716,9580,8181,8182
5.354653,9582,8181,8180
5.363585,9580,8181,8182
5.374387,9585,8181,8182
5.398593,9585,8178,8182
5.40135,9585,8181,8182
5.405195,9585,8181,8182
5.412918,9588,8181,8182
5.424057,9588,8181,8180
5.435393,9585,8178,8182
5.444435,9582,8181,8180
5.454638,9580,8181,8185
5.462921,9574,8178,8182
5.474089,9567,8181,8180
5.48447,9564,8178,8180
5.495179,9559,8181,8180
5.50382,9553,8178,8180
5.515308,9551,8181,8180
5.524101,9543,8181,8177
5.533038,9543,8181,8177
5.544034,9537,8181,8180
5.555518,9537,8178,8182
5.56425,9534,8178,8180
5.573189,9532,8181,8180
5.581847,9534,8178,8182
5.593327,9532,8178,8185
5.606829,9537,8178,8185
5.613187,9534,8178,8182
5.62483,9534,8178,8182
5.6337,9534,8181,8182
5.645217,9534,8178,8185
5.654202,9532,8181,8180
5.665757,9529,8181,8182
5.672101,9529,8181,8185
5.686204,9524,8181,8182
5.692563,9524,8178,8182
5.703605,9521,8181,8182
5.712545,9521,8181,8182
5.726447,9515,8181,8182
5.732811,9515,8178,8182
5.744294,9513,8178,8182
5.75488,9513,8178,8180
5.76365,9507,8181,8185
5.775222,9505,8181,8185
5.783292,9505,8181,8182
5.794872,9499,8181,8182
5.80612,9494,8181,8185
5.815074,9490,8178,8182
5.824037,9485,8181,8185
5.833023,9478,8181,8185
5.844293,9476,8178,8182
5.852992,9470,8181,8182
5.864504,9467,8178,8182
5.875599,9465,8181,8185
5.884534,9457,8181,8182
5.895674,9457,8178,8182
5.90214,9454,8181,8180
5.913453,9448,8178,8180
5.924538,9438,8181,8182
5.933397,9430,8181,8182
5.944547,9424,8178,8180
5.955081,9415,8178,8182
5.964026,9407,8181,8185
5.975571,9401,8181,8180
5.984562,9387,8178,8180
5.993518,9373,8178,8180
6.002454,9357,8178,8182
6.013994,9334,8178,8182
6.022942,9310,8181,8180
6.03446,9276,8178,8182
6.045133,9163,8178,8169
6.054065,9109,8178,8180
6.065575,9010,8178,8182
6.074496,8897,8178,8182
6.083435,8799,8181,8180
6.092374,8683,8181,8182
6.103481,8565,8178,8180
6.11241,8490,8181,8177
6.123923,8444,8181,8177
6.132743,8420,8183,8177
6.144315,8406,8186,8177
6.152947,8396,8186,8177
6.164506,8382,8191,8177
6.173516,8364,8191,8180
6.185095,8356,8196,8180
6.193537,8337,8196,8177
6.202238,8320,8199,8180
6.213725,8310,8204,8182
6.22268,8299,8206,8180
6.233705,8296,8206,8180
6.245125,8301,8209,8180
6.252266,8291,8209,8182
6.261574,8276,8209,8180
6.272722,8271,8212,8180
6.283725,8246,8214,8182
6.294432,8244,8217,8182
6.304954,8230,8222,8177
6.313937,8208,8222,8180
6.325455,8200,8227,8177
6.331407,8185,8227,8180
6.342527,8179,8232,8174
6.354037,8168,8232,8177
6.362831,8166,8237,8177
6.37125,8166,8237,8177
6.382298,8168,8242,8180
6.393345,8166,8239,8177
6.402291,8152,8239,8182
6.413841,8147,8245,8185
6.424371,8155,8242,8180
6.433307,8139,8245,8185
6.442226,8131,8247,8180
6.453746,8128,8252,8177
6.462684,8125,8252,8185
6.47381,8128,8255,8180
6.482489,8117,8252,8177
6.494023,8114,8257,8185
6.502956,8106,8257,8180
6.51445,8122,8257,8177
6.523388,8122,8260,8182
6.534921,8128,8257,8182
6.541292,8131,8263,8182
6.552806,8128,8257,8182
6.561743,8131,8257,8182
6.575064,8147,8260,8180
6.583705,8150,8255,8182
6.592126,8160,8255,8180
6.603189,8158,8255,8180
6.612124,8166,8257,8180
6.623652,8177,8252,8177
6.632062,8174,8252,8182
6.643367,8174,8252,8180
6.654822,8179,8247,8177
6.663768,8192,8250,8182
6.672744,8206,8247,8185
6.68168,8195,8247,8177
6.692362,8217,8242,8180
6.703913,8200,8239,8185
6.714576,8206,8245,8182
6.720918,8203,8239,8177
6.734547,8200,8242,8182
6.743043,8214,8245,8180
6.755363,8219,8239,8182
6.763331,8225,8239,8180
6.774466,8235,8239,8185
6.783102,8254,8242,8182
6.794273,8260,8239,8180
6.800398,8268,8232,8180
6.811654,8285,8237,8180
6.820609,8283,8230,8177
6.832149,8310,8224,8182
6.843517,8320,8224,8182
6.851595,8323,8222,8182
6.862941,8331,8219,8180
6.874552,8347,8217,8180
6.883489,8356,8214,8177
6.891945,8364,8209,8180
6.90063,8369,8209,8180
6.914428,8382,8206,8180
6.920779,8377,8206,8180
6.932353,8398,8204,8182
6.941053,8406,8201,8180
6.952574,8417,8199,8182
6.961513,8423,8199,8182
6.972512,8431,8196,8180
6.983721,8433,8196,8180
6.992657,8439,8196,8180
7.004177,8447,8196,8180
7.010532,8458,8193,8180
7.019325,8479,8191,8182
7.030861,8492,8191,8180
7.044402,8511,8188,8180
7.053308,8530,8186,8182
7.062246,8536,8183,8180
7.071207,8544,8183,8182
7.080202,8553,8181,8180
7.091768,8567,8181,8180
7.100694,8581,8178,8182
7.112218,8603,8178,8180
7.123446,8622,8175,8182
7.131939,8647,8175,8180
7.140925,8675,8175,8182
7.152482,8750,8175,8180
7.163969,8836,8170,8180
7.173229,8905,8178,8187
7.179605,8988,8175,8187
7.193292,9090,8175,8190
7.202237,9176,8178,8190
7.213682,9243,8178,8192
7.222671,9313,8175,8195
7.23116,9357,8178,8192
7.242681,9407,8175,8192
7.253669,9457,8175,8192
7.263784,9494,8178,8187
7.27019,9529,8178,8190
7.283602,9561,8178,8190
7.292556,9599,8178,8190
7.301584,9628,8178,8190
7.310535,9651,8178,8190
7.322088,9674,8178,8190
7.33112,9695,8175,8190
7.34164,9713,8178,8187
7.353118,9734,8178,8187
7.362028,9742,8178,8187
7.37032,9753,8175,8187
7.383745,9768,8175,8187
7.392685,9777,8175,8187
7.401686,9785,8178,8187
7.410617,9793,8181,8187
7.422143,9799,8181,8185
7.431072,9804,8181,8182
7.442187,9809,8181,8185
7.451165,9818,8181,8185
7.46268,9823,8178,8182
7.473741,9831,8181,8182
7.480093,9837,8178,8185
7.491676,9845,8181,8185
7.500392,9858,8181,8182
7.511918,9866,8181,8182
7.520861,9871,8178,8182
7.532358,9876,8178,8187
7.541308,9885,8178,8185
7.55292,9887,8181,8187
7.562,9893,8178,8187
7.573162,9893,8181,8185
7.579514,9895,8181,8187
7.593562,9901,8178,8185
7.602509,9904,8178,8185
7.611508,9904,8181,8185
7.619692,9906,8175,8185
7.630924,9909,8175,8185
7.64245,9909,8178,8185
7.648806,9906,8178,8185
7.662948,9906,8178,8182
7.671883,9904,8178,8185
7.683409,9898,8175,8182
7.692333,9893,8175,8182
7.7012,9887,8175,8185
7.710107,9882,8178,8185
7.723372,9882,8178,8182
7.732313,9879,8175,8182
7.741189,9876,8175,8182
7.750132,9874,8175,8182
7.761303,9868,8175,8182
7.76975,9871,8175,8182
7.781244,9868,8175,8182
7.790174,9866,8178,8182
7.801731,9863,8178,8182
7.810671,9863,8178,8185
7.8217,9866,8175,8185
7.832796,9866,8175,8182
7.841241,9863,8178,8182
7.852758,9863,8175,8182
7.861688,9863,8178,8182
7.870193,9860,8178,8182
7.881251,9858,8175,8182
7.890197,9858,8178,8180
7.901746,9858,8178,8182
7.910157,9858,8175,8182
7.921542,9852,8175,8182
7.932979,9852,8181,8185
7.941956,9852,8181,8182
7.950662,9852,8181,8180
7.961572,9847,8178,8182
7.969788,9845,8181,8185
7.981213,9842,8178,8182
7.992733,9839,8178,8182
7.999092,9839,8178,8180
8.010331,9834,8178,8182
