Time [s],Gauge Pressure [cmH2O],Inspiratory differenrtial pressure [cmH2O],Expiratory differenrtial pressure [cmH2O]
0,0.783143298578404,1.73793444342057,-0.0750959327403949
0.00322599999999795,1.08352702953998,1.59847056833126,-0.160919855872275
0.020508999999997,1.2873588469782,1.51264664519938,-0.19310382704673
0.0226849999999956,1.49119066441641,1.51264664519938,-0.10727990391485
0.0289439999999956,1.60919855872275,1.45900669324196,-0.0750959327403949
0.0379889999999961,1.78084640498651,1.37318277011008,-0.160919855872275
0.0474249999999969,1.89885429929284,1.37318277011008,-0.12873588469782
0.0560879999999955,2.38161386690967,1.24444688541226,-0.160919855872275
0.0654859999999999,2.20996602064591,1.24444688541226,-0.2145598078297
0.0750999999999991,2.73563754982867,1.24444688541226,-0.0750959327403949
0.0858919999999941,2.7892775017861,1.11571100071444,-0.10727990391485
0.0949049999999971,3.30422104057738,1.09425501993147,-0.0750959327403949
0.106016999999994,3.59387678114747,0.922607173667709,-0.10727990391485
0.117208999999995,3.69042869467084,0.954791144842164,-0.0750959327403949
0.126263999999999,4.08736433915578,0.836783250535829,-0.10727990391485
0.137912999999998,4.88123562812567,0.783143298578404,-0.12873588469782
0.144387999999999,5.12797940712982,0.697319375446524,-0.0750959327403949
0.156076999999996,5.58928299396368,0.590039471531674,-0.12873588469782
0.1646,6.24369040784426,0.407663634876429,-0.10727990391485
0.175539000000001,7.08047365838009,0.289655740570095,-0.0750959327403949
0.186400999999996,7.98162485126483,0.15019186548079,-0.0536399519574249
0.195096999999997,8.71112819788581,0.0429119615659399,-0.0536399519574249
0.206737999999994,9.58009541959609,-0.0965519135233649,-0.02145598078297
0.215603999999999,10.5027025932638,-0.182375836655245,-0.02145598078297
0.227273999999994,11.1892939783188,-0.203831817438215,-0.02145598078297
0.232962999999998,12.0797171808121,-0.25747176939564,-0.19310382704673
0.246659000000001,13.0881482776117,-0.396935644484945,0.139463875089305
0.258306999999995,14.2253152591091,-0.182375836655245,0.17164784626376
0.267339999999997,15.0620985096449,-0.182375836655245,0.118007894306335
0.273668000000001,15.6843219523511,-0.182375836655245,0.0858239231318799
0.284659999999995,16.3387293662316,-0.15019186548079,0.0643679423489099
0.295589999999997,16.7785769722825,-0.182375836655245,0.0643679423489099
0.307251000000001,17.1540566359845,-0.182375836655245,0.0643679423489099
0.315734999999997,17.497352328512,-0.182375836655245,0.0643679423489099
0.327413999999997,17.8084640498651,-0.182375836655245,0.0643679423489099
0.333887999999995,18.0444798384777,-0.182375836655245,0.0643679423489099
0.345504999999996,18.3019516078734,-0.182375836655245,0.0643679423489099
0.354558999999995,18.5486953868775,-0.15019186548079,0.032183971174455
0.366237999999996,18.7203432331413,-0.182375836655245,0.032183971174455
0.375394999999997,18.9885429929284,-0.182375836655245,0.032183971174455
0.387036999999999,19.2031028007581,-0.182375836655245,0.032183971174455
0.395637000000001,19.4069346181963,-0.182375836655245,0.032183971174455
0.404818999999996,19.5571264836771,-0.182375836655245,0.0643679423489099
0.416239999999995,19.8360542338557,-0.182375836655245,0.0858239231318799
0.427495,19.9862460993365,-0.182375836655245,0.032183971174455
0.436520999999999,20.1900779167747,-0.182375836655245,0.0643679423489099
0.445094999999995,20.3080858110811,-0.182375836655245,0.0643679423489099
0.453620999999998,20.4475496861704,-0.182375836655245,0.0858239231318799
0.467230000000001,20.5655575804767,-0.182375836655245,0.0643679423489099
0.476284,20.6942934651745,-0.182375836655245,0.0858239231318799
0.487874999999995,20.8230293498724,-0.182375836655245,0.0858239231318799
0.494312000000001,20.9088532730042,-0.182375836655245,0.118007894306335
0.504884999999994,20.9624932249617,-0.182375836655245,0.0858239231318799
0.515463999999994,21.080501119268,-0.182375836655245,0.118007894306335
0.527000000000001,21.080501119268,-0.182375836655245,0.118007894306335
0.536054999999998,21.1663250423999,-0.182375836655245,0.0858239231318799
0.547680999999997,21.3487008790551,-0.182375836655245,0.0858239231318799
0.556773,21.5847166676678,-0.182375836655245,0.0858239231318799
0.566184999999997,21.8529164274549,-0.182375836655245,0.0858239231318799
0.574348000000001,22.0674762352846,-0.182375836655245,0.0643679423489099
0.583127999999995,22.2713080527228,-0.182375836655245,0.0643679423489099
0.596722,22.5609637932929,-0.182375836655245,0.032183971174455
0.607825999999996,22.7218836491652,-0.182375836655245,0.032183971174455
0.614228999999995,22.9686274281694,-0.182375836655245,0
0.626024999999998,23.1617312552161,-0.182375836655245,0
0.635013000000001,23.3226511110884,-0.182375836655245,0
0.646679999999996,23.4406590053947,-0.182375836655245,-0.02145598078297
0.657435,23.580122880484,-0.182375836655245,-0.02145598078297
0.663891,23.6981307747903,-0.182375836655245,-0.02145598078297
0.675140999999996,23.7946826883137,-0.182375836655245,-0.0536399519574249
0.684131000000001,24.0092424961434,-0.15019186548079,-0.0536399519574249
0.695360000000001,24.1594343616242,-0.15019186548079,-0.0536399519574249
0.704456999999998,24.2988982367135,-0.15019186548079,-0.0536399519574249
0.715936999999997,24.3310822078879,-0.15019186548079,-0.0536399519574249
0.724936,24.4490901021943,-0.15019186548079,-0.0536399519574249
0.736531999999997,24.5027300541517,-0.15019186548079,-0.0750959327403949
0.742987999999997,24.5670979965006,-0.15019186548079,-0.0536399519574249
0.754461999999997,24.620737948458,-0.15019186548079,-0.0750959327403949
0.763521999999995,24.5885539772836,-0.15019186548079,-0.0750959327403949
0.777349000000001,24.5885539772836,-0.15019186548079,-0.0750959327403949
0.783857999999995,24.5670979965006,-0.15019186548079,-0.0750959327403949
0.795530999999997,24.5670979965006,-0.182375836655245,-0.0536399519574249
0.803910999999999,24.5670979965006,-0.182375836655245,-0.0750959327403949
0.814690999999996,24.5027300541517,-0.182375836655245,-0.0750959327403949
0.825443,24.4812740733687,-0.182375836655245,-0.10727990391485
0.833956000000001,24.4490901021943,-0.15019186548079,-0.10727990391485
0.845504999999996,24.4490901021943,-0.182375836655245,-0.10727990391485
0.854599,24.4169061310198,-0.182375836655245,-0.0750959327403949
0.866237999999996,24.3632661790624,-0.182375836655245,-0.0750959327403949
0.875301,24.3310822078879,-0.182375836655245,-0.0750959327403949
0.886502,24.2988982367135,-0.182375836655245,-0.0750959327403949
0.895077000000001,24.2452582847561,-0.182375836655245,-0.0750959327403949
0.906473999999996,24.2130743135816,-0.182375836655245,-0.10727990391485
0.914628999999998,24.1916183327986,-0.182375836655245,-0.10727990391485
0.923158999999998,24.1272503904497,-0.182375836655245,-0.0750959327403949
0.934795999999999,24.0950664192753,-0.182375836655245,-0.0750959327403949
0.945934999999999,24.0950664192753,-0.182375836655245,-0.0750959327403949
0.955016000000001,24.0414264673179,-0.182375836655245,-0.0750959327403949
0.964022999999997,24.0092424961434,-0.182375836655245,-0.0750959327403949
0.975693,23.9877865153604,-0.182375836655245,-0.0750959327403949
0.984400000000001,24.0092424961434,-0.182375836655245,-0.0750959327403949
0.995892999999995,24.0736104384923,-0.182375836655245,-0.10727990391485
1.004849,24.0736104384923,-0.182375836655245,-0.10727990391485
1.013983,24.0950664192753,-0.182375836655245,-0.10727990391485
1.02546299999999,24.0950664192753,-0.182375836655245,-0.10727990391485
1.033887,24.2452582847561,-0.182375836655245,-0.10727990391485
1.042718,24.1916183327986,-0.182375836655245,-0.0750959327403949
1.05424799999999,24.2452582847561,-0.182375836655245,-0.10727990391485
1.065962,24.2452582847561,-0.182375836655245,-0.10727990391485
1.073911,24.2774422559305,-0.182375836655245,-0.10727990391485
1.08473,24.2774422559305,-0.182375836655245,-0.10727990391485
1.095896,24.2774422559305,-0.182375836655245,-0.0750959327403949
1.104207,24.2774422559305,-0.182375836655245,-0.0536399519574249
1.11541099999999,24.2774422559305,-0.182375836655245,-0.10727990391485
1.126514,24.2452582847561,-0.182375836655245,-0.0750959327403949
1.135295,24.2452582847561,-0.182375836655245,-0.0536399519574249
1.146437,24.2774422559305,-0.182375836655245,-0.0750959327403949
1.155438,24.2774422559305,-0.182375836655245,-0.0750959327403949
1.167146,24.3310822078879,-0.182375836655245,-0.0750959327403949
1.17363,24.3632661790624,-0.182375836655245,-0.0750959327403949
1.185325,24.3954501502369,-0.182375836655245,-0.0750959327403949
1.19352,24.4169061310198,-0.182375836655245,-0.0750959327403949
1.20508299999999,24.4490901021943,-0.182375836655245,-0.0536399519574249
1.213618,24.4812740733687,-0.182375836655245,-0.0536399519574249
1.22530399999999,24.5027300541517,-0.182375836655245,-0.0750959327403949
1.233768,24.5349140253262,-0.182375836655245,-0.0750959327403949
1.244843,24.5885539772836,-0.182375836655245,-0.0750959327403949
1.25362699999999,24.5885539772836,-0.182375836655245,-0.0750959327403949
1.264622,24.5885539772836,-0.182375836655245,-0.0750959327403949
1.273374,24.620737948458,-0.182375836655245,-0.10727990391485
1.28443499999999,24.620737948458,-0.182375836655245,-0.0750959327403949
1.296101,24.620737948458,-0.182375836655245,-0.0750959327403949
1.305024,24.5885539772836,-0.182375836655245,-0.0750959327403949
1.313919,24.5885539772836,-0.15019186548079,-0.0750959327403949
1.325599,24.5885539772836,-0.15019186548079,-0.0750959327403949
1.333911,24.5349140253262,-0.15019186548079,-0.0536399519574249
1.345112,24.5670979965006,-0.15019186548079,-0.0750959327403949
1.353792,24.5349140253262,-0.15019186548079,-0.0750959327403949
1.365558,24.5349140253262,-0.118007894306335,-0.0750959327403949
1.374205,24.4812740733687,-0.15019186548079,-0.0750959327403949
1.385475,24.4812740733687,-0.15019186548079,-0.0750959327403949
1.39418,24.4169061310198,-0.118007894306335,-0.0750959327403949
1.405665,24.3310822078879,-0.15019186548079,-0.0750959327403949
1.416784,24.2774422559305,-0.182375836655245,-0.0750959327403949
1.423232,24.1916183327986,-0.182375836655245,-0.0750959327403949
1.434904,24.0950664192753,-0.182375836655245,-0.0750959327403949
1.443561,24.0414264673179,-0.182375836655245,-0.0536399519574249
1.45521,23.9877865153604,-0.182375836655245,-0.10727990391485
1.463373,23.9234185730115,-0.182375836655245,-0.0750959327403949
1.474822,23.8912346018371,-0.182375836655245,-0.0750959327403949
1.483898,23.7732267075307,-0.182375836655245,-0.0536399519574249
1.49562,23.7946826883137,-0.182375836655245,-0.0536399519574249
1.504303,23.7410427363563,-0.182375836655245,-0.0750959327403949
1.51588,23.6981307747903,-0.182375836655245,-0.0750959327403949
1.524947,23.6766747940074,-0.15019186548079,-0.0750959327403949
1.533863,23.6766747940074,-0.15019186548079,-0.0536399519574249
1.542756,23.6444908228329,-0.15019186548079,-0.0536399519574249
1.55383399999999,23.6444908228329,-0.15019186548079,-0.0750959327403949
1.562476,23.6766747940074,-0.15019186548079,-0.0750959327403949
1.573714,23.6444908228329,-0.15019186548079,-0.10727990391485
1.584291,23.6766747940074,-0.15019186548079,-0.10727990391485
1.592892,23.6444908228329,-0.15019186548079,-0.0750959327403949
1.604156,23.6444908228329,-0.15019186548079,-0.0536399519574249
1.61557,23.6981307747903,-0.15019186548079,-0.10727990391485
1.622076,23.6766747940074,-0.15019186548079,-0.0750959327403949
1.635967,23.6444908228329,-0.15019186548079,-0.0750959327403949
1.642457,23.6766747940074,-0.15019186548079,-0.10727990391485
1.653111,23.6444908228329,-0.15019186548079,-0.0750959327403949
1.666062,23.580122880484,-0.15019186548079,-0.0750959327403949
1.67394299999999,23.580122880484,-0.15019186548079,-0.0750959327403949
1.685147,23.6444908228329,-0.15019186548079,-0.0750959327403949
1.693366,23.6123068516585,-0.15019186548079,-0.0536399519574249
1.704905,23.6123068516585,-0.15019186548079,-0.0750959327403949
1.715532,23.580122880484,-0.15019186548079,-0.0750959327403949
1.722006,23.558666899701,-0.15019186548079,-0.0750959327403949
1.73329099999999,23.558666899701,-0.182375836655245,-0.0536399519574249
1.743818,23.4942989573521,-0.182375836655245,-0.0750959327403949
1.752773,23.4942989573521,-0.182375836655245,-0.0536399519574249
1.766597,23.4728429765692,-0.182375836655245,-0.0536399519574249
1.772805,23.4406590053947,-0.182375836655245,-0.0750959327403949
1.783099,23.3762910630458,-0.15019186548079,-0.0750959327403949
1.79414,23.2904671399139,-0.15019186548079,-0.0750959327403949
1.804952,23.2582831687394,-0.15019186548079,-0.0750959327403949
1.813669,23.1617312552161,-0.182375836655245,-0.0750959327403949
1.822435,23.1080913032587,-0.182375836655245,-0.0750959327403949
1.83331099999999,23.0544513513012,-0.182375836655245,-0.0750959327403949
1.844944,22.9686274281694,-0.182375836655245,-0.0750959327403949
1.853991,22.9364434569949,-0.182375836655245,-0.0750959327403949
1.862901,22.850619533863,-0.182375836655245,-0.10727990391485
1.873687,22.7647956107311,-0.182375836655245,-0.10727990391485
1.884881,22.6896996779907,-0.182375836655245,-0.10727990391485
1.893978,22.6253317356418,-0.182375836655245,-0.0750959327403949
1.90305499999999,22.5609637932929,-0.182375836655245,-0.0536399519574249
1.912171,22.5073238413355,-0.182375836655245,-0.0750959327403949
1.92594399999999,22.475139870161,-0.182375836655245,-0.0750959327403949
1.932418,22.4536838893781,-0.182375836655245,-0.0750959327403949
1.94412699999999,22.4214999182036,-0.182375836655245,-0.10727990391485
1.953154,22.4214999182036,-0.182375836655245,-0.0750959327403949
1.964785,22.3571319758547,-0.182375836655245,-0.0750959327403949
1.973642,22.3893159470292,-0.182375836655245,-0.0750959327403949
1.982405,22.3893159470292,-0.182375836655245,-0.0750959327403949
1.993548,22.3034920238973,-0.182375836655245,-0.0750959327403949
2.005092,22.3571319758547,-0.182375836655245,-0.0536399519574249
2.01417799999999,22.3356759950717,-0.182375836655245,-0.0750959327403949
2.022831,22.3356759950717,-0.182375836655245,-0.0750959327403949
2.031487,22.3571319758547,-0.182375836655245,-0.10727990391485
2.042716,22.3356759950717,-0.15019186548079,-0.0536399519574249
2.054348,22.3034920238973,-0.15019186548079,-0.0750959327403949
2.063401,22.3034920238973,-0.15019186548079,-0.0750959327403949
2.073275,22.2713080527228,-0.15019186548079,-0.0750959327403949
2.082349,22.2498520719399,-0.15019186548079,-0.0750959327403949
2.093565,22.2176681007654,-0.182375836655245,-0.0750959327403949
2.105011,22.2176681007654,-0.15019186548079,-0.0750959327403949
2.11366899999999,22.2176681007654,-0.15019186548079,-0.0750959327403949
2.125256,22.185484129591,-0.15019186548079,-0.0536399519574249
2.131285,22.1318441776335,-0.15019186548079,-0.0750959327403949
2.143017,22.1533001584165,-0.15019186548079,-0.0750959327403949
2.152062,22.0996602064591,-0.15019186548079,-0.0750959327403949
2.163717,22.0674762352846,-0.15019186548079,-0.0750959327403949
2.172733,22.0996602064591,-0.15019186548079,-0.0750959327403949
2.183982,22.1533001584165,-0.15019186548079,-0.0750959327403949
2.19277,22.1533001584165,-0.15019186548079,-0.0536399519574249
2.202923,22.185484129591,-0.15019186548079,-0.0750959327403949
2.211495,22.185484129591,-0.118007894306335,-0.0750959327403949
2.222973,22.1533001584165,-0.15019186548079,-0.0750959327403949
2.23133199999999,22.185484129591,-0.15019186548079,-0.0750959327403949
2.24260899999999,22.1533001584165,-0.118007894306335,-0.0750959327403949
2.254224,22.1533001584165,-0.182375836655245,-0.0750959327403949
2.263209,22.1533001584165,-0.182375836655245,-0.10727990391485
2.275016,22.0996602064591,-0.182375836655245,-0.10727990391485
2.281292,22.0460202545016,-0.182375836655245,-0.0750959327403949
2.292368,22.0138362833272,-0.182375836655245,-0.10727990391485
2.303383,21.9280123601953,-0.203831817438215,-0.0750959327403949
2.311725,21.8958283890209,-0.182375836655245,-0.10727990391485
2.32239,21.7992764754975,-0.182375836655245,-0.10727990391485
2.331304,21.6705405907997,-0.182375836655245,-0.10727990391485
2.34287,21.6383566196252,-0.182375836655245,-0.10727990391485
2.35192199999999,21.5847166676678,-0.182375836655245,-0.0750959327403949
2.363112,21.5525326964933,-0.182375836655245,-0.0750959327403949
2.37210899999999,21.4988927445359,-0.182375836655245,-0.0750959327403949
2.383786,21.4988927445359,-0.182375836655245,-0.10727990391485
2.392743,21.434524802187,-0.182375836655245,-0.0750959327403949
2.404449,21.434524802187,-0.182375836655245,-0.0750959327403949
2.41325699999999,21.3808848502296,-0.182375836655245,-0.0750959327403949
2.422119,21.3808848502296,-0.182375836655245,-0.0750959327403949
2.433771,21.413068821404,-0.182375836655245,-0.0750959327403949
2.442848,21.3487008790551,-0.15019186548079,-0.0750959327403949
2.454507,21.3808848502296,-0.182375836655245,-0.0536399519574249
2.46354299999999,21.3487008790551,-0.15019186548079,-0.10727990391485
2.474837,21.3487008790551,-0.15019186548079,-0.0750959327403949
2.483828,21.3487008790551,-0.15019186548079,-0.0750959327403949
2.492911,21.3272448982722,-0.15019186548079,-0.0750959327403949
2.501998,21.3487008790551,-0.15019186548079,-0.10727990391485
2.513566,21.3808848502296,-0.15019186548079,-0.0750959327403949
2.522567,21.3808848502296,-0.15019186548079,-0.0750959327403949
2.533851,21.3487008790551,-0.15019186548079,-0.0750959327403949
2.54291,21.3808848502296,-0.15019186548079,-0.0536399519574249
2.55469,21.3808848502296,-0.15019186548079,-0.0750959327403949
2.563755,21.3808848502296,-0.15019186548079,-0.0750959327403949
2.574911,21.3487008790551,-0.182375836655245,-0.0750959327403949
2.581241,21.3808848502296,-0.15019186548079,-0.0536399519574249
2.592755,21.3808848502296,-0.182375836655245,-0.0750959327403949
2.601377,21.3808848502296,-0.182375836655245,-0.0750959327403949
2.614866,21.3808848502296,-0.182375836655245,-0.0750959327403949
2.621319,21.3487008790551,-0.182375836655245,-0.0750959327403949
2.633007,21.3487008790551,-0.182375836655245,-0.10727990391485
2.642118,21.2950609270977,-0.182375836655245,-0.10727990391485
2.653233,21.2628769559232,-0.15019186548079,-0.0750959327403949
2.662197,21.1985090135743,-0.15019186548079,-0.0750959327403949
2.671144,21.1985090135743,-0.182375836655245,-0.10727990391485
2.681532,21.1663250423999,-0.182375836655245,-0.0750959327403949
2.693215,21.1341410712254,-0.182375836655245,-0.0750959327403949
2.701347,21.1341410712254,-0.182375836655245,-0.0750959327403949
2.71275,21.1126850904425,-0.15019186548079,-0.0750959327403949
2.724211,21.1126850904425,-0.182375836655245,-0.0750959327403949
2.733055,21.1341410712254,-0.182375836655245,-0.0536399519574249
2.744713,21.1663250423999,-0.182375836655245,-0.0536399519574249
2.75068599999999,21.1341410712254,-0.182375836655245,-0.0750959327403949
2.76456599999999,21.1341410712254,-0.182375836655245,-0.0750959327403949
2.770927,21.1663250423999,-0.182375836655245,-0.0750959327403949
2.781992,21.1663250423999,-0.118007894306335,-0.0536399519574249
2.791259,21.1341410712254,-0.15019186548079,-0.0750959327403949
2.801941,21.1985090135743,-0.118007894306335,-0.0536399519574249
2.812114,21.2199649943573,-0.118007894306335,-0.0750959327403949
2.82343299999999,21.2199649943573,-0.118007894306335,-0.0536399519574249
2.83256,21.2199649943573,-0.15019186548079,-0.0750959327403949
2.840523,21.2950609270977,-0.15019186548079,-0.10727990391485
2.85165,21.2950609270977,-0.15019186548079,-0.10727990391485
2.863204,21.3272448982722,-0.15019186548079,-0.10727990391485
2.872122,21.3272448982722,-0.15019186548079,-0.10727990391485
2.883415,21.3272448982722,-0.182375836655245,-0.12873588469782
2.891997,21.3272448982722,-0.182375836655245,-0.10727990391485
2.90282699999999,21.3487008790551,-0.182375836655245,-0.10727990391485
2.912615,21.3272448982722,-0.182375836655245,-0.10727990391485
2.92086,21.3272448982722,-0.182375836655245,-0.10727990391485
2.931813,21.3808848502296,-0.182375836655245,-0.10727990391485
