Time [s],Gauge Pressure,Inspiratory differenrtial pressure,Expiratory differenrtial pressure
0,8364,8183,8190
0.00306799999999896,8372,8183,8192
0.00694699999999671,8404,8183,8192
0.0221459999999993,8431,8181,8195
0.0298510000000007,8450,8181,8192
0.0312049999999999,8498,8181,8192
0.0391320000000022,8567,8181,8187
0.0492339999999984,8630,8181,8185
0.0584339999999983,8670,8181,8180
0.0685870000000008,8699,8181,8180
0.0788409999999971,8718,8178,8182
0.0890599999999964,8736,8178,8180
0.0994150000000005,8753,8181,8182
0.109991000000001,8766,8178,8180
0.119756000000002,8791,8181,8185
0.127719999999997,8804,8181,8182
0.138660000000002,8819,8181,8180
0.149893999999996,8836,8181,8182
0.158721999999997,8844,8181,8182
0.170327,8869,8178,8180
0.179360000000003,8882,8181,8182
0.191038999999996,8894,8181,8182
0.200116999999999,8910,8181,8182
0.211717999999998,8918,8181,8182
0.220760999999996,8936,8178,8180
0.229706999999998,8946,8178,8177
0.238748000000001,8957,8178,8180
0.247957999999997,8963,8178,8182
0.261755999999998,8977,8178,8180
0.268208000000001,8980,8181,8182
0.279637000000001,8991,8181,8182
0.288668999999999,8993,8181,8185
0.300316000000002,9002,8178,8182
0.309140999999997,9010,8181,8182
0.320641000000002,9015,8181,8180
0.329673999999997,9027,8178,8185
0.341324,9032,8178,8185
0.350361999999997,9038,8175,8182
0.356782000000003,9043,8178,8182
0.368035999999996,9047,8178,8180
0.379120999999998,9052,8175,8182
0.388151000000001,9055,8178,8182
0.399810000000002,9058,8178,8182
0.408668999999996,9066,8178,8185
0.420029999999997,9071,8175,8182
0.430621000000002,9079,8178,8180
0.438685,9090,8181,8182
0.447749000000002,9093,8181,8182
0.461379000000001,9101,8181,8182
0.467821000000001,9113,8178,8182
0.481796000000003,9122,8181,8182
0.488242999999997,9127,8178,8180
0.498975999999999,9135,8181,8182
0.507948999999996,9144,8181,8185
0.519508999999999,9149,8181,8180
0.528509,9163,8181,8182
0.539884000000001,9168,8178,8182
0.548214999999999,9182,8181,8182
0.558368999999999,9195,8181,8182
0.566504999999999,9200,8181,8180
0.579259999999998,9219,8181,8182
0.589385,9230,8181,8182
0.599587,9240,8181,8182
0.610118,9254,8178,8185
0.618603,9267,8181,8185
0.629137,9279,8181,8185
0.639735000000002,9290,8181,8185
0.648231000000003,9305,8178,8185
0.659723999999997,9321,8175,8185
0.671055000000003,9334,8178,8182
0.676994999999998,9348,8178,8185
0.691251999999999,9368,8178,8185
0.697933999999997,9384,8178,8185
0.709215999999998,9404,8178,8182
0.718116999999999,9424,8178,8185
0.728985999999999,9454,8178,8185
0.737932999999998,9478,8178,8187
0.749355000000001,9513,8181,8187
0.758361999999998,9540,8178,8185
0.769995999999999,9567,8181,8187
0.777813000000002,9591,8181,8187
0.788443999999998,9612,8181,8185
0.799410999999999,9634,8181,8187
0.810152000000002,9659,8181,8187
0.818544000000003,9677,8181,8187
0.829025999999999,9693,8181,8187
0.839416999999997,9713,8181,8187
0.847654999999996,9732,8181,8185
0.858561999999999,9745,8181,8187
0.867035000000001,9762,8178,8185
0.879756999999998,9782,8178,8187
0.889831000000001,9801,8181,8187
0.898814999999999,9820,8181,8187
0.907719,9839,8181,8187
0.916586000000002,9858,8181,8190
0.927749999999996,9876,8181,8187
0.939255000000003,9895,8181,8190
0.947558000000001,9915,8178,8190
0.958739999999999,9921,8181,8192
0.967838,9943,8181,8195
0.978313,9954,8181,8195
0.989810999999996,9985,8178,8195
0.998058999999998,10009,8178,8192
1.00866,10026,8181,8195
1.020172,10044,8181,8195
1.029212,10066,8181,8195
1.03785,10082,8178,8195
1.050463,10101,8181,8195
1.05884,10118,8178,8195
1.069942,10133,8181,8198
1.078564,10141,8181,8198
1.089862,10149,8181,8198
1.098806,10152,8178,8198
1.109308,10160,8178,8195
1.118301,10162,8181,8192
1.129497,10168,8181,8192
1.137756,10185,8181,8190
1.149396,10196,8181,8187
1.157605,10207,8181,8187
1.166184,10215,8178,8185
1.180255,10227,8175,8185
1.189316,10233,8175,8185
1.200841,10238,8178,8185
1.206788,10241,8178,8182
1.217868,10244,8175,8185
1.22923,10247,8175,8185
1.238008,10249,8178,8182
1.247042,10252,8178,8182
1.2574,10249,8178,8185
1.268491,10249,8178,8185
1.280018,10247,8181,8185
1.289052,10247,8181,8185
1.297311,10244,8178,8182
1.305411,10236,8181,8185
1.319256,10233,8181,8185
1.330677,10229,8178,8185
1.33711,10227,8181,8182
1.348756,10227,8181,8182
1.357346,10227,8181,8185
1.367392,10227,8181,8182
1.378431,10224,8181,8185
1.38667,10229,8181,8182
1.395178,10224,8181,8182
1.408036,10227,8178,8185
1.416601,10227,8181,8185
1.427961,10224,8178,8182
1.436975,10221,8178,8182
1.448663,10221,8178,8182
1.457479,10218,8178,8182
1.469173,10221,8181,8185
1.477348,10218,8181,8182
1.488794,10215,8181,8182
1.50031,10215,8178,8182
1.506905,10209,8181,8185
1.518579,10212,8181,8182
1.527071,10207,8181,8185
1.537938,10207,8181,8182
1.549073,10204,8181,8182
1.556607,10201,8181,8185
1.568086,10204,8181,8182
1.579696,10201,8181,8182
1.58873,10196,8178,8185
1.595064,10196,8178,8182
1.608975,10196,8178,8182
1.619889,10193,8181,8182
1.62893,10190,8178,8185
1.638054,10190,8178,8185
1.647059,10190,8178,8182
1.658368,10185,8181,8182
1.667414,10185,8178,8185
1.676041,10185,8178,8182
1.686998,10182,8181,8182
1.696031,10177,8181,8182
1.707425,10177,8178,8185
1.716463,10174,8181,8180
1.728104,10170,8178,8182
1.736615,10168,8178,8185
1.747867,10162,8178,8182
1.759191,10165,8178,8182
1.767898,10165,8181,8182
1.779553,10160,8178,8182
1.786027,10160,8178,8182
1.797494,10157,8178,8182
1.806367,10154,8178,8182
1.818032,10154,8178,8182
1.82708,10152,8181,8180
1.838605,10149,8181,8185
1.847683,10146,8178,8182
1.859093,10143,8181,8185
1.868146,10146,8181,8182
1.879714,10138,8178,8182
1.886106,10138,8178,8185
1.897028,10138,8181,8182
1.907736,10135,8178,8182
1.91678,10135,8181,8182
1.927427,10133,8181,8182
1.935136,10133,8178,8182
1.946215,10133,8178,8180
1.957505,10130,8181,8182
1.966245,10133,8181,8180
1.977292,10133,8181,8180
1.98537,10130,8181,8180
1.995942,10133,8178,8182
2.006249,10130,8178,8182
2.016941,10133,8178,8185
2.02853,10133,8178,8180
2.037533,10133,8175,8185
2.049232,10133,8178,8182
2.057835,10138,8175,8185
2.066464,10138,8178,8182
2.077199,10141,8178,8185
2.085797,10143,8178,8182
2.096741,10149,8178,8182
2.108272,10154,8178,8182
2.117257,10157,8178,8185
2.128327,10160,8178,8182
2.136562,10165,8178,8182
2.14527,10165,8178,8182
2.156318,10165,8175,8182
2.165363,10165,8178,8182
2.179426,10165,8178,8182
2.185847,10162,8178,8182
2.197485,10160,8175,8182
2.206505,10157,8178,8185
2.218148,10154,8181,8185
2.227271,10154,8178,8182
2.234078,10154,8181,8182
2.246997,10152,8181,8182
2.255189,10154,8181,8180
2.268285,10154,8181,8180
2.274746,10154,8178,8182
2.288376,10152,8181,8182
2.294652,10157,8181,8182
2.306345,10154,8181,8182
2.315409,10160,8181,8182
2.328301,10160,8181,8182
2.337349,10160,8181,8185
2.348937,10160,8181,8182
2.355393,10160,8181,8185
2.366991,10162,8178,8185
2.375985,10162,8181,8185
2.387473,10165,8181,8185
2.396208,10162,8181,8182
2.407836,10162,8178,8182
2.416887,10162,8181,8185
2.428344,10162,8178,8185
2.437387,10165,8178,8185
2.445651,10162,8175,8182
2.456542,10162,8178,8182
2.468195,10160,8178,8182
2.477252,10157,8175,8182
2.48571,10152,8178,8182
2.494387,10149,8178,8182
2.508694,10143,8178,8182
2.517764,10146,8178,8185
2.526673,10141,8178,8182
2.535622,10138,8178,8185
2.546849,10138,8178,8182
2.557471,10133,8178,8185
2.565683,10133,8178,8182
2.576834,10133,8175,8185
2.585506,10130,8175,8182
2.596107,10126,8175,8182
2.606904,10126,8178,8185
2.615483,10126,8175,8182
2.627131,10123,8175,8182
2.638109,10126,8181,8182
2.647143,10123,8178,8182
2.656292,10123,8178,8182
2.664904,10123,8181,8182
2.676006,10118,8178,8182
2.687662,10123,8181,8182
2.694096,10126,8181,8185
2.707824,10126,8181,8182
2.716868,10133,8178,8182
2.728415,10133,8178,8185
2.737447,10135,8178,8185
2.746514,10138,8178,8182
2.755533,10138,8178,8182
2.767198,10141,8181,8185
2.777975,10141,8178,8180
2.784427,10138,8178,8182
2.796087,10141,8178,8182
2.805141,10143,8178,8182
2.816805,10146,8178,8185
2.825722,10146,8178,8182
2.837352,10149,8178,8182
2.846376,10149,8183,8182
2.857845,10154,8181,8182
2.866885,10154,8181,8182
2.87574,10157,8181,8182
2.88477,10160,8183,8182
2.896409,10165,8181,8185
2.90671,10168,8181,8187
2.915697,10174,8181,8185
2.927014,10180,8183,8185
2.934896,10185,8181,8182
2.944873,10196,8178,8185
2.954897,10207,8178,8185
2.964789,10221,8178,8185
2.974957,10229,8178,8185
2.98282,10241,8178,8185
2.994181,10249,8178,8185
3.003059,10255,8178,8185
3.014952,10257,8181,8182
3.026322,10257,8178,8185
3.035262,10263,8178,8185
3.043151,10268,8181,8185
3.056018,10271,8181,8185
3.065819,10271,8178,8182
3.073775,10271,8178,8182
3.083561,10268,8178,8182
3.09601,10266,8181,8185
3.104037,10268,8178,8185
3.11567,10268,8181,8182
3.124843,10268,8178,8182
3.131909,10266,8178,8182
3.144,10260,8178,8182
3.155011,10257,8178,8182
3.166101,10252,8178,8182
3.174264,10249,8178,8182
3.184318,10244,8178,8182
3.19482,10233,8178,8185
3.20544,10227,8178,8182
3.213476,10221,8181,8182
3.224709,10212,8178,8182
3.235921,10207,8178,8182
3.244709,10204,8178,8185
3.256531,10201,8178,8182
3.264622,10196,8178,8182
3.275704,10196,8181,8182
3.284344,10193,8181,8182
3.292882,10190,8181,8185
3.30633,10188,8178,8185
3.314707,10185,8178,8182
3.325861,10182,8178,8185
3.334875,10177,8178,8180
3.346462,10177,8178,8180
3.355528,10177,8181,8185
3.364526,10180,8178,8182
3.375742,10177,8181,8180
3.38434,10174,8181,8182
3.392953,10170,8178,8182
3.406708,10165,8181,8180
3.414951,10162,8181,8182
3.425815,10157,8178,8182
3.434861,10149,8178,8180
3.446437,10143,8178,8180
3.455462,10141,8181,8182
3.466434,10135,8181,8180
3.472964,10126,8181,8180
3.486998,10123,8178,8177
3.495002,10112,8178,8180
3.505011,10109,8178,8180
3.515715,10098,8178,8180
3.524639,10090,8181,8182
3.535927,10082,8181,8180
3.544595,10068,8181,8180
3.556241,10055,8181,8180
3.564293,10047,8178,8182
3.575036,10039,8181,8182
3.586339,10028,8178,8185
3.592361,10018,8178,8180
3.606395,10009,8178,8182
3.615458,10001,8181,8180
3.626633,9988,8178,8182
3.632508,9982,8181,8180
3.643604,9965,8181,8180
3.655014,9946,8181,8177
3.664045,9923,8178,8180
3.675738,9906,8181,8182
3.684783,9890,8178,8180
3.695627,9876,8181,8182
3.704272,9860,8178,8180
3.715673,9837,8178,8180
3.724727,9815,8178,8180
3.733774,9793,8181,8180
3.745012,9771,8178,8180
3.756414,9751,8181,8180
3.762867,9734,8178,8180
3.774502,9724,8181,8180
3.783575,9715,8178,8180
3.79487,9704,8181,8180
3.803459,9695,8178,8180
3.815098,9690,8181,8182
3.823935,9682,8181,8180
3.835559,9666,8178,8180
3.846892,9610,8178,8180
3.853338,9518,8178,8180
3.864634,9381,8178,8180
3.873396,9213,8178,8182
3.884404,9043,8181,8180
3.893018,8885,8181,8180
3.904383,8705,8181,8180
3.913151,8506,8181,8180
3.924722,8310,8178,8180
3.935885,8152,8181,8180
3.944978,8101,8188,8180
3.956337,8039,8196,8180
3.962801,7983,8204,8180
3.9744,7953,8209,8180
3.983431,7929,8217,8180
3.995028,7857,8227,8182
4.006152,7846,8227,8182
4.01262,7865,8230,8185
4.023149,7840,8237,8180
4.034293,7799,8247,8174
4.043346,7760,8263,8177
4.055086,7752,8257,8177
4.065273,7741,8252,8177
4.07443,7754,8263,8177
4.083184,7733,8273,8180
4.09469,7715,8273,8172
4.105783,7735,8268,8187
4.114846,7746,8263,8185
4.125887,7724,8273,8174
4.134436,7724,8263,8177
4.145986,7726,8265,8180
4.152453,7760,8257,8177
4.164167,7757,8265,8174
4.173189,7733,8260,8180
4.184827,7762,8263,8182
4.19386,7749,8255,8180
4.205486,7749,8260,8174
4.214553,7741,8263,8174
4.225534,7752,8257,8172
4.231489,7754,8273,8177
4.245159,7746,8263,8182
4.25385,7729,8263,8177
4.265089,7718,8270,8180
4.274133,7765,8265,8180
4.285408,7710,8268,8177
4.293994,7710,8273,8185
4.305697,7705,8263,8180
4.314399,7707,8263,8180
4.323093,7710,8265,8177
4.332141,7705,8273,8185
4.343314,7702,8265,8177
4.352342,7718,8260,8180
4.36399,7715,8263,8187
4.372878,7729,8263,8180
4.384058,7729,8263,8180
4.395639,7724,8265,8177
4.40211,7726,8273,8185
4.41375,7749,8270,8177
4.422875,7726,8268,8177
4.433694,7749,8265,8187
4.444989,7752,8260,8180
4.454035,7746,8270,8180
4.463037,7738,8270,8180
4.472094,7733,8270,8174
4.483367,7752,8265,8180
4.492409,7735,8268,8180
4.504046,7738,8260,8177
4.51518,7735,8263,8177
4.524249,7752,8270,8185
4.532675,7743,8257,8182
4.543975,7746,8268,8180
4.554957,7735,8268,8182
4.564601,7746,8263,8180
4.572756,7726,8270,8177
4.583859,7752,8255,8180
4.592884,7765,8265,8180
4.60454,7749,8257,8182
4.613601,7765,8250,8177
4.622273,7741,8265,8177
4.633937,7768,8268,8182
4.644955,7762,8260,8180
4.653989,7757,8260,8180
4.663036,7757,8257,8182
4.6715,7781,8263,8177
4.682709,7771,8270,8180
4.691743,7781,8255,8182
4.703375,7749,8252,8177
4.712255,7784,8257,8177
4.723759,7768,8252,8177
4.732657,7793,8263,8177
4.744297,7793,8255,8182
4.753332,7791,8255,8180
4.76503,7787,8255,8180
4.774066,7784,8250,8180
4.785504,7779,8250,8174
4.791938,7809,8252,8180
4.80358,7796,8250,8177
4.81214,7799,8255,8182
4.823296,7818,8255,8180
4.831887,7799,8252,8177
4.840919,7815,8250,8180
4.852369,7793,8250,8180
4.861174,7804,8252,8177
4.872858,7799,8255,8185
4.881891,7812,8250,8180
4.890786,7791,8252,8182
4.902432,7793,8247,8182
4.913323,7793,8255,8177
4.92159,7807,8252,8180
4.932442,7812,8247,8180
4.943397,7807,8250,8180
4.954767,7796,8247,8182
4.961223,7843,8247,8185
4.972889,7818,8250,8177
4.981941,7820,8252,8182
4.993213,7804,8245,8177
5.00307,7827,8245,8180
5.012455,7829,8245,8180
5.020303,7843,8242,8180
5.031311,7851,8245,8180
5.042171,7846,8242,8180
5.053175,7851,8242,8182
5.061695,7859,8232,8180
5.072955,7865,8232,8180
5.079267,7875,8237,8180
5.090865,7875,8232,8180
5.099766,7884,8237,8180
5.111361,7870,8232,8180
5.122619,7898,8227,8180
5.133769,7878,8230,8180
5.142447,7889,8230,8180
5.154088,7904,8227,8182
5.164718,7889,8227,8180
5.171148,7898,8219,8180
5.182794,7904,8224,8180
5.191262,7915,8227,8180
5.202918,7915,8224,8180
5.211235,7904,8222,8180
5.220251,7921,8222,8180
5.234407,7912,8219,8180
5.243431,7915,8222,8180
5.252463,7926,8219,8182
5.261066,7912,8219,8177
5.272727,7926,8219,8180
5.281774,7906,8222,8182
5.29343,7921,8224,8180
5.302473,7918,8224,8180
5.3134,7915,8219,8180
5.322466,7915,8222,8177
5.334136,7912,8219,8180
5.340573,7921,8222,8177
5.352213,7923,8222,8180
5.361288,7934,8217,8180
5.373168,7953,8217,8180
5.381397,7956,8217,8180
5.39229,7961,8214,8177
5.403736,7961,8212,8180
5.41281,7967,8214,8177
5.424357,7972,8212,8180
5.430858,7970,8212,8180
5.442294,7978,8209,8180
5.45096,7975,8209,8180
5.462546,7986,8206,8180
5.473392,7983,8204,8180
5.482397,7995,8204,8180
5.494115,7986,8204,8180
5.503231,7988,8206,8180
5.511728,7986,8204,8182
5.520756,7986,8206,8180
5.532394,7986,8206,8180
5.541405,7975,8209,8180
5.553039,7978,8204,8180
5.565013,7980,8206,8180
5.573093,7986,8206,8177
5.582044,8000,8204,8180
5.593653,8000,8204,8182
5.600128,7998,8204,8182
5.611346,8003,8204,8180
5.620404,8009,8204,8180
5.63152,8003,8199,8177
5.640608,8012,8201,8182
5.651895,8009,8201,8180
5.660966,8020,8201,8180
5.672327,8018,8204,8180
5.68046,8015,8204,8180
5.691752,8009,8204,8180
5.700737,8023,8201,8180
5.712302,8012,8204,8180
5.721092,8018,8201,8180
5.732468,8023,8201,8177
5.74119,8023,8201,8182
5.752844,8023,8201,8180
5.76153,8020,8204,8180
5.770589,8018,8204,8182
5.781882,8020,8204,8180
5.793537,8023,8201,8180
5.799912,8037,8201,8180
5.811442,8042,8201,8180
5.820533,8053,8199,8180
5.832197,8055,8199,8180
5.841173,8058,8199,8180
5.852847,8064,8196,8180
5.859259,8072,8196,8182
5.873165,8074,8193,8180
5.88221,8080,8191,8180
5.891262,8083,8191,8180
5.900319,8085,8191,8180
5.911624,8092,8188,8180
5.920664,8094,8188,8180
5.932344,8097,8188,8180
5.941384,8101,8186,8180
5.952965,8106,8188,8180
5.961171,8112,8186,8180
5.972869,8122,8186,8180
5.981352,8125,8183,8180
5.989881,8131,8183,8180
6.001025,8136,8183,8180
6.011941,8141,8183,8180
6.020983,8147,8181,8180
6.032247,8155,8181,8180
6.040288,8160,8181,8180
6.051889,8163,8181,8180
6.063576,8166,8181,8180
6.070358,8168,8181,8180
6.081265,8174,8178,8180
6.0924,8177,8175,8180
6.101292,8185,8175,8180
6.110002,8188,8175,8180
6.118899,8192,8175,8180
6.130426,8230,8188,8185
6.139508,8225,8175,8182
6.150331,8233,8178,8182
6.161209,8249,8178,8182
6.170158,8263,8175,8182
6.181706,8276,8178,8182
6.192455,8285,8181,8182
6.201499,8310,8178,8182
6.212905,8329,8181,8185
6.221946,8350,8181,8185
6.233443,8387,8181,8185
6.23978,8423,8181,8182
6.251433,8473,8181,8182
6.260485,8525,8178,8182
6.271553,8584,8181,8182
6.280597,8639,8178,8185
6.292245,8705,8181,8182
6.301292,8769,8183,8185
6.312933,8841,8181,8185
6.319413,8910,8181,8185
6.330892,8983,8181,8185
6.340014,9058,8183,8185
6.351762,9127,8183,8187
6.360692,9163,8181,8185
6.372123,9205,8181,8187
6.381215,9246,8181,8187
6.392714,9302,8181,8187
6.39916,9343,8181,8187
6.41081,9379,8181,8185
6.419856,9420,8181,8187
6.431119,9459,8181,8187
6.439236,9499,8178,8190
6.450208,9537,8181,8185
6.461604,9574,8178,8187
6.472492,9610,8178,8187
6.481452,9648,8178,8187
6.490446,9685,8181,8190
6.499473,9729,8181,8190
6.510443,9762,8181,8192
6.519542,9804,8181,8192
6.52776,9839,8178,8192
6.539399,9874,8178,8192
6.550994,9876,8181,8198
6.559975,9915,8178,8200
6.57183,9960,8181,8198
6.580942,9982,8181,8198
6.589492,10009,8181,8200
6.600697,10031,8181,8200
6.611885,10060,8178,8200
6.620927,10079,8178,8200
6.632175,10095,8178,8200
6.641215,10112,8178,8200
6.650178,10126,8178,8200
6.658971,10138,8181,8198
6.670617,10143,8181,8198
6.682306,10152,8178,8195
6.688761,10162,8178,8195
6.702168,10168,8178,8195
6.708529,10174,8181,8195
6.719789,10182,8178,8192
6.731143,10204,8178,8192
6.739776,10227,8178,8187
6.751428,10244,8178,8187
6.76047,10255,8181,8185
6.772115,10268,8178,8185
6.778616,10279,8181,8185
6.789749,10287,8178,8185
6.798802,10295,8178,8185
6.809554,10298,8181,8185
6.820677,10307,8178,8185
6.831633,10310,8175,8185
6.840674,10316,8178,8185
6.849494,10322,8178,8185
6.858537,10330,8178,8185
6.87265,10338,8175,8182
6.878764,10346,8175,8185
6.889947,10357,8178,8185
6.898567,10366,8175,8185
6.909776,10374,8175,8182
6.92143,10377,8178,8182
6.927937,10385,8178,8180
6.939415,10393,8181,8180
6.948527,10399,8181,8182
6.960174,10408,8178,8182
6.969185,10422,8178,8182
6.980858,10430,8178,8182
6.989825,10444,8181,8182
6.998673,10452,8178,8182
7.007714,10463,8178,8180
7.021902,10476,8178,8185
7.030961,10490,8181,8185
7.04231,10500,8178,8185
7.0488,10508,8178,8182
7.060513,10514,8178,8185
7.069326,10519,8178,8182
7.080457,10527,8178,8182
7.08629,10530,8178,8185
7.10033,10532,8178,8182
7.111387,10538,8178,8182
7.120374,10543,8178,8185
7.129429,10550,8181,8182
7.138507,10555,8178,8185
7.149952,10561,8181,8185
7.158463,10555,8178,8185
7.170064,10558,8181,8185
7.178678,10558,8178,8182
7.189997,10555,8181,8185
7.201622,10558,8178,8182
7.210678,10558,8181,8185
7.21969,10558,8178,8182
7.228372,10555,8178,8182
7.239766,10558,8178,8185
7.248279,10555,8175,8182
7.259921,10552,8178,8185
7.26891,10550,8175,8182
7.277464,10535,8175,8185
7.289091,10530,8178,8182
7.298135,10524,8178,8182
7.309135,10516,8178,8182
7.31813,10508,8175,8182
7.329782,10496,8175,8182
7.338819,10494,8181,8185
7.350519,10490,8181,8182
7.359561,10490,8181,8185
7.371282,10490,8178,8182
7.37752,10490,8178,8185
7.388675,10490,8178,8185
7.399859,10496,8181,8185
7.408895,10500,8178,8185
7.420544,10503,8178,8185
7.429628,10505,8181,8185
7.441066,10511,8181,8185
7.447504,10514,8178,8185
7.458934,10519,8178,8185
7.469653,10522,8181,8182
7.480194,10530,8178,8185
7.489273,10535,8178,8182
7.500947,10543,8178,8182
7.509985,10547,8181,8182
7.519041,10550,8181,8185
7.528202,10555,8178,8182
7.539762,10558,8181,8185
7.548761,10558,8181,8185
7.560506,10561,8183,8182
7.566953,10561,8183,8185
7.580465,10563,8183,8185
7.589452,10563,8183,8182
7.597535,10561,8181,8185
7.608116,10558,8181,8185
7.617055,10555,8181,8185
7.63115,10552,8181,8182
7.637608,10550,8181,8182
7.649257,10550,8181,8182
7.658115,10547,8178,8185
7.669799,10547,8181,8185
7.678523,10541,8178,8185
7.687556,10541,8178,8185
7.696608,10541,8181,8182
7.710869,10535,8178,8185
7.717368,10538,8178,8185
7.728364,10532,8178,8185
7.739633,10530,8178,8185
7.748683,10530,8181,8187
7.76028,10530,8181,8185
7.766728,10530,8181,8185
7.777966,10532,8181,8182
