Time [s],Gauge Pressure,Inspiratory differenrtial pressure,Expiratory differenrtial pressure
0,10482,8181,8180
0.00316699999999948,10479,8178,8180
0.0225359999999997,10474,8181,8180
0.0243779999999996,10466,8181,8182
0.0298439999999998,10468,8181,8182
0.0356909999999999,10463,8181,8182
0.0472009999999994,10460,8181,8185
0.0587209999999994,10452,8178,8185
0.0650869999999992,10449,8181,8185
0.0787709999999997,10444,8178,8185
0.0872859999999998,10441,8181,8185
0.098484,10436,8178,8185
0.104558,10430,8181,8185
0.118732,10422,8178,8182
0.126855999999999,10413,8181,8185
0.138186999999999,10405,8181,8182
0.147208,10396,8181,8180
0.158688,10388,8181,8180
0.16431,10380,8181,8177
0.191646,10371,8181,8180
0.192035,10363,8181,8180
0.216837,10360,8178,8180
0.218057,10357,8178,8180
0.218328,10349,8181,8182
0.229278,10343,8178,8180
0.237208,10338,8178,8182
0.245855,10335,8181,8180
0.257454,10327,8175,8182
0.26634,10322,8178,8185
0.275308,10314,8178,8182
0.286389,10310,8178,8182
0.297154,10301,8178,8185
0.305699,10298,8178,8182
0.316522999999999,10295,8183,8185
0.327357999999999,10287,8181,8185
0.335608,10285,8183,8182
0.346835,10285,8183,8185
0.357862,10282,8183,8182
0.363937,10282,8181,8182
0.375451,10279,8181,8185
0.386987,10274,8183,8182
0.398543999999999,10271,8183,8185
0.404932,10271,8183,8185
0.415497999999999,10266,8181,8185
0.426101,10266,8178,8185
0.43709,10263,8181,8182
0.446092999999999,10263,8181,8180
0.4573,10263,8181,8185
0.465457,10260,8178,8185
0.477017999999999,10263,8181,8185
0.488531,10260,8181,8185
0.495152,10263,8178,8182
0.506615,10263,8181,8185
0.515508,10263,8181,8185
0.525821,10260,8181,8185
0.536430999999999,10260,8178,8182
0.544779999999999,10257,8178,8180
0.557494999999999,10257,8178,8185
0.566184,10257,8178,8182
0.575143,10257,8181,8185
0.588038,10260,8181,8182
0.596997999999999,10263,8181,8185
0.608536999999999,10268,8181,8182
0.614833999999999,10268,8181,8185
0.625972999999999,10268,8181,8185
0.634662,10268,8178,8185
0.647835,10268,8181,8185
0.656343,10271,8181,8185
0.66458,10271,8181,8185
0.675776,10271,8178,8182
0.684515999999999,10271,8181,8185
0.698404999999999,10274,8181,8182
0.704765999999999,10276,8181,8185
0.715273,10282,8178,8185
0.724310999999999,10282,8181,8185
0.735306,10282,8181,8185
0.74391,10282,8181,8185
0.755039,10285,8178,8182
0.766137,10285,8178,8187
0.777667,10279,8178,8182
0.783536,10279,8181,8185
0.794963,10279,8181,8182
0.80613,10279,8178,8185
0.817038999999999,10279,8181,8182
0.827617999999999,10282,8181,8182
0.833894999999999,10282,8181,8185
0.847272999999999,10285,8181,8182
0.85609,10282,8181,8182
0.867205999999999,10285,8181,8185
0.87358,10285,8181,8185
0.885092999999999,10285,8181,8182
0.896372,10285,8181,8182
0.905359,10282,8181,8185
0.916412999999999,10279,8181,8185
0.925365999999999,10276,8181,8182
0.936916999999999,10276,8181,8185
0.945815,10276,8178,8185
0.956534,10279,8178,8185
0.964744,10282,8181,8185
0.975824999999999,10285,8178,8185
0.986662,10290,8181,8187
0.997460999999999,10293,8181,8187
1.002955,10295,8181,8182
1.016021,10298,8178,8182
1.024116,10298,8178,8185
1.035058,10298,8181,8182
1.045817,10303,8178,8182
1.054751,10303,8178,8182
1.065717,10303,8178,8182
1.076255,10303,8178,8182
1.085194,10307,8178,8185
1.096747,10307,8175,8182
1.105826,10310,8175,8182
1.114504,10307,8175,8185
1.125979,10310,8178,8185
1.137066,10310,8178,8185
1.14611,10314,8178,8185
1.156559,10316,8178,8182
1.164739,10319,8181,8185
1.172944,10327,8181,8182
1.186551,10330,8178,8182
1.194185,10330,8181,8182
1.204645,10324,8178,8185
1.21332,10327,8178,8185
1.226846,10330,8181,8182
1.233224,10327,8181,8182
1.247164,10324,8181,8182
1.253525,10324,8181,8185
1.265152,10319,8181,8182
1.273211,10319,8181,8185
1.284564,10316,8181,8182
1.295167,10314,8181,8185
1.304126,10310,8178,8185
1.315794,10303,8181,8182
1.324315,10298,8181,8185
1.335654,10298,8181,8180
1.346191,10295,8181,8187
1.356437,10293,8178,8185
1.36483,10298,8178,8185
1.375344,10301,8178,8182
1.383755,10298,8181,8185
1.394255,10301,8181,8185
1.405711,10301,8181,8185
1.41461,10301,8178,8182
1.423458,10295,8181,8182
1.433517,10293,8181,8182
1.446929,10285,8181,8185
1.456,10285,8181,8182
1.465792,10282,8181,8182
1.473951,10282,8178,8180
1.485173,10287,8181,8182
1.495174,10285,8178,8185
1.505043,10287,8178,8185
1.512832,10287,8181,8182
1.523617,10285,8181,8182
1.534247,10287,8181,8185
1.544414,10282,8181,8185
1.553358,10282,8178,8182
1.564899,10282,8183,8185
1.573525,10279,8183,8182
1.584351,10279,8181,8182
1.595236,10282,8183,8185
1.603585,10279,8183,8185
1.614997,10282,8183,8182
1.623972,10279,8183,8182
1.635578,10276,8183,8182
1.644547,10279,8183,8182
1.656075,10274,8183,8185
1.664721,10271,8183,8185
1.676239,10271,8181,8180
1.684828,10268,8181,8185
1.692818,10271,8181,8182
1.704328,10266,8181,8185
1.715732,10260,8181,8182
1.72469,10263,8181,8182
1.73609,10257,8181,8182
1.745111,10252,8181,8182
1.756276,10249,8181,8182
1.765218,10247,8181,8182
1.773907,10238,8181,8182
1.782127,10233,8181,8185
1.795686,10224,8181,8182
1.804464,10218,8181,8185
1.813278,10215,8181,8182
1.82426,10212,8181,8182
1.83307,10207,8181,8185
1.846394,10199,8181,8182
1.852761,10196,8181,8182
1.863468,10190,8181,8180
1.873959,10182,8181,8185
1.884926,10180,8178,8182
1.893233,10174,8178,8182
1.902147,10168,8178,8182
1.915874,10162,8178,8182
1.92483,10157,8178,8182
1.936407,10152,8178,8185
1.942818,10149,8178,8182
1.951723,10143,8178,8182
1.965034,10146,8178,8182
1.976437,10138,8178,8180
1.982628,10133,8181,8185
1.992852,10126,8181,8185
2.004563,10123,8178,8182
2.015283,10118,8178,8182
2.02409,10118,8181,8185
2.03545,10115,8181,8182
2.044373,10112,8181,8182
2.055943,10106,8181,8182
2.062371,10101,8178,8182
2.074853,10095,8181,8182
2.082363,10093,8181,8182
2.092914,10087,8178,8180
2.103371,10082,8178,8185
2.113675,10076,8178,8185
2.123869,10074,8178,8185
2.134966,10071,8178,8182
2.143405,10066,8178,8182
2.154543,10063,8181,8180
2.165114,10057,8178,8182
2.174161,10057,8181,8180
2.185092,10052,8181,8185
2.192695,10052,8178,8182
2.202755,10049,8178,8185
2.213071,10044,8178,8182
2.224255,10041,8178,8185
2.235366,10031,8178,8182
2.244316,10031,8178,8182
2.253158,10026,8178,8182
2.264695,10026,8178,8182
2.276216,10023,8178,8185
2.282532,10023,8178,8182
2.29382,10023,8178,8180
2.302586,10023,8181,8180
2.315811,10018,8181,8180
2.322345,10015,8181,8182
2.331377,10018,8181,8177
2.345509,10018,8178,8180
2.354268,10015,8178,8180
2.363188,10012,8181,8180
2.371664,10015,8181,8180
2.382938,10012,8181,8180
2.393771,10009,8181,8182
2.405126,10009,8181,8182
2.41342,10009,8181,8180
2.422102,10009,8181,8182
2.432692,10009,8181,8180
2.444051,10007,8181,8180
2.454564,10004,8181,8180
2.463169,10004,8181,8180
2.474213,10001,8181,8180
2.485528,9999,8178,8182
2.491891,10001,8181,8180
2.502958,9996,8181,8182
2.513672,9999,8181,8182
2.522335,9996,8178,8185
2.53331,9993,8181,8182
2.544559,9996,8181,8182
2.550935,9996,8181,8177
2.565053,9996,8178,8185
2.574002,9993,8181,8182
2.582973,9990,8181,8182
2.591917,9990,8181,8180
2.603546,9988,8181,8185
2.612256,9985,8178,8185
2.623049,9988,8178,8182
2.631873,9985,8178,8182
2.640384,9985,8178,8185
2.65185,9982,8178,8185
2.66349,9982,8178,8180
2.671992,9982,8178,8182
2.683565,9980,8178,8182
2.692463,9977,8178,8182
2.700466,9980,8178,8182
2.711627,9973,8178,8180
2.722127,9971,8178,8182
2.732906,9968,8178,8185
2.741236,9968,8178,8185
2.752772,9965,8178,8180
2.763856,9965,8178,8180
2.774919,9962,8178,8180
2.783375,9960,8178,8182
2.791847,9954,8178,8185
2.800839,9957,8178,8180
2.812353,9957,8178,8180
2.822972,9954,8181,8182
2.83146,9957,8181,8182
2.843094,9954,8181,8182
2.853606,9960,8181,8182
2.862335,9962,8181,8182
2.873759,9965,8181,8185
2.882692,9968,8181,8182
2.893933,9968,8181,8182
2.902714,9973,8178,8182
2.913724,9973,8181,8185
2.922512,9973,8181,8185
2.934254,9973,8181,8185
2.942583,9977,8181,8182
2.953367,9977,8181,8187
2.959726,9973,8178,8182
2.973604,9973,8181,8185
2.982555,9973,8181,8182
2.993426,9977,8181,8185
3.002344,9973,8181,8185
3.010504,9973,8181,8185
3.021758,9977,8181,8182
3.03079,9977,8178,8182
3.044504,9980,8178,8185
3.050088,9980,8178,8185
3.061173,9982,8178,8185
3.072639,9982,8175,8182
3.084373,9980,8178,8185
3.089837,9977,8175,8182
3.10184,9980,8178,8185
3.112976,9985,8178,8182
3.121916,9988,8178,8185
3.132933,9988,8178,8182
3.141778,9990,8181,8182
3.152642,9990,8181,8182
3.163576,9990,8183,8182
3.170821,9990,8183,8185
3.181533,9993,8183,8185
3.191452,9993,8183,8182
3.200268,9996,8183,8182
3.213887,9993,8183,8185
3.219892,9990,8183,8182
3.233586,9988,8183,8185
3.24409,9990,8178,8185
3.252506,9993,8178,8185
3.260632,9990,8178,8182
3.271565,9990,8178,8182
3.2826,9988,8178,8185
3.291432,9988,8178,8182
3.302906,9985,8178,8180
3.311851,9985,8178,8182
3.323404,9982,8178,8182
3.332395,9980,8178,8185
3.341516,9980,8178,8185
3.353001,9980,8178,8180
3.360655,9977,8178,8182
3.373426,9977,8178,8185
3.38405,9973,8178,8185
3.390422,9973,8178,8182
3.401969,9977,8178,8182
3.410948,9973,8178,8182
3.42256,9973,8178,8182
3.430644,9971,8178,8185
3.441842,9973,8178,8182
3.452881,9973,8181,8180
3.460451,9973,8181,8185
3.471338,9973,8181,8185
3.482301,9971,8181,8185
3.490938,9965,8181,8182
3.50247,9965,8181,8182
3.511285,9971,8181,8180
3.522621,9965,8181,8185
3.531619,9971,8181,8182
3.543313,9971,8181,8185
3.552281,9971,8181,8185
3.562947,9973,8181,8185
3.569282,9973,8181,8182
3.582932,9973,8181,8182
3.590677,9977,8181,8185
3.599179,9977,8181,8182
3.612887,9977,8181,8182
3.618816,9980,8181,8185
3.630338,9980,8178,8182
3.641328,9982,8181,8182
3.650267,9982,8181,8185
3.66062,9985,8178,8185
3.671175,9988,8178,8185
3.679934,9988,8178,8185
3.690626,9988,8178,8185
3.700858,9993,8175,8182
3.712385,9990,8178,8185
3.722609,9990,8178,8185
3.731254,9993,8178,8185
3.741606,9996,8178,8185
3.75292,9996,8178,8185
3.761884,9999,8181,8182
3.770296,9996,8181,8182
3.779444,9996,8181,8185
3.792731,9999,8181,8185
3.801221,9996,8181,8182
3.810045,9996,8181,8182
3.822598,9996,8178,8182
3.831623,9996,8181,8182
3.84317,9993,8178,8185
3.852132,9993,8178,8182
3.861047,9990,8178,8182
3.869997,9990,8181,8182
3.881527,9988,8183,8182
3.89027,9985,8183,8182
3.901662,9982,8183,8185
3.909408,9980,8183,8180
3.919995,9980,8183,8185
3.930931,9980,8183,8185
3.941913,9977,8183,8185
3.950691,9977,8183,8182
3.961281,9971,8183,8185
3.972038,9968,8181,8182
3.977934,9965,8181,8180
3.991744,9960,8181,8185
4.000303,9960,8181,8182
4.011199,9957,8181,8180
4.020038,9957,8181,8182
4.031587,9954,8181,8182
4.040177,9952,8181,8182
4.05172,9949,8181,8185
4.059971,9946,8181,8180
4.068903,9943,8181,8182
4.079792,9943,8181,8182
4.090957,9940,8181,8182
4.102291,9937,8181,8182
4.108447,9934,8181,8180
4.122116,9932,8181,8182
4.129793,9932,8181,8182
4.140489,9929,8181,8182
4.152121,9929,8181,8182
4.160533,9926,8181,8180
4.172084,9926,8181,8182
4.181085,9923,8181,8182
4.192099,9921,8181,8185
4.201118,9915,8181,8180
4.212141,9915,8181,8182
4.220714,9912,8181,8182
4.232129,9906,8181,8180
4.237669,9906,8181,8182
4.249012,9904,8181,8182
4.259878,9898,8181,8182
4.270936,9898,8181,8182
4.279897,9895,8181,8180
4.291437,9893,8178,8182
4.302436,9893,8178,8182
4.310972,9890,8178,8182
4.322476,9890,8178,8182
4.328625,9887,8178,8180
4.341983,9885,8178,8182
4.350962,9882,8178,8182
4.362574,9879,8178,8182
4.36893,9874,8178,8182
4.379995,9871,8178,8180
4.388633,9868,8181,8180
4.401356,9866,8181,8182
4.410299,9863,8178,8182
4.421125,9863,8181,8182
4.43177,9858,8181,8182
4.442588,9847,8181,8185
4.448938,9845,8181,8180
4.460309,9842,8181,8180
4.471435,9834,8178,8182
4.480397,9828,8181,8177
4.49196,9823,8181,8180
4.498429,9815,8181,8180
4.512055,9807,8181,8182
4.518588,9801,8181,8182
4.532376,9796,8181,8182
4.538425,9791,8181,8182
4.54917,9788,8181,8182
4.557834,9785,8181,8182
4.570637,9785,8181,8180
4.581354,9785,8181,8182
4.590321,9788,8181,8182
4.601619,9791,8181,8185
4.610574,9788,8181,8185
4.618976,9788,8178,8180
4.627215,9788,8181,8182
4.638535,9788,8178,8182
4.651364,9796,8178,8185
4.659653,9796,8181,8182
4.670947,9801,8181,8182
4.679929,9804,8181,8182
4.691476,9807,8181,8182
4.700146,9807,8181,8185
4.708851,9807,8178,8185
4.720008,9804,8181,8182
4.728642,9804,8178,8180
4.739005,9807,8181,8185
4.749429,9809,8181,8185
4.760456,9809,8181,8185
4.769366,9809,8181,8185
4.780721,9818,8181,8185
4.789217,9818,8181,8185
4.800567,9815,8178,8182
4.809498,9818,8178,8185
4.821036,9815,8178,8182
4.827289,9812,8178,8182
4.838507,9809,8178,8185
4.849942,9809,8178,8185
4.859322,9804,8175,8180
4.870308,9801,8178,8182
4.878733,9793,8178,8180
4.888777,9791,8178,8180
4.899196,9785,8178,8180
4.909726,9780,8175,8177
4.920125,9777,8181,8182
4.929847,9771,8178,8180
4.940089,9765,8178,8180
4.950926,9760,8178,8180
4.95988,9756,8181,8182
4.971364,9751,8178,8182
4.977553,9745,8181,8180
4.987984,9737,8181,8182
5.000983,9729,8181,8182
5.007208,9726,8178,8182
5.017569,9718,8181,8182
5.028824,9710,8181,8182
5.040225,9695,8181,8180
5.049146,9687,8181,8180
5.057832,9677,8178,8180
5.069264,9662,8178,8180
5.080798,9654,8181,8180
5.089282,9639,8178,8180
5.098247,9626,8181,8182
5.109799,9607,8178,8180
5.118697,9585,8178,8180
5.13023,9521,8178,8174
5.139195,9510,8181,8182
5.148763,9482,8181,8180
5.155946,9446,8181,8180
5.168207,9401,8181,8180
5.178808,9357,8178,8180
5.189938,9290,8181,8180
5.197911,9208,8181,8182
5.210833,9125,8181,8180
5.217251,9038,8181,8180
5.230824,8938,8178,8182
5.239782,8841,8175,8182
5.251324,8745,8178,8180
5.257648,8653,8178,8182
5.268401,8549,8178,8180
5.277377,8471,8178,8180
5.291015,8396,8181,8182
5.29996,8334,8188,8180
5.308675,8283,8193,8182
5.317009,8230,8201,8182
5.328495,8177,8209,8182
5.340034,8125,8222,8185
5.348979,8088,8227,8182
5.360136,8037,8239,8174
5.367967,7983,8247,8177
5.379526,7934,8250,8180
5.388551,7932,8260,8185
5.397536,7909,8263,8180
5.409093,7875,8270,8174
5.418053,7870,8276,8177
5.42955,7901,8281,8180
5.438493,7867,8288,8182
5.45004,7848,8301,8172
5.458218,7865,8304,8172
5.469705,7848,8308,8174
5.478563,7878,8310,8182
5.488754,7870,8310,8177
5.497696,7854,8308,8172
5.511095,7909,8308,8190
5.517214,7923,8320,8190
5.528694,7889,8320,8174
5.537679,7895,8315,8182
5.549804,7895,8318,8174
5.559157,7909,8310,8180
5.567905,7926,8323,8177
5.579455,7951,8315,8180
5.588051,7970,8318,8180
5.599619,7948,8320,8174
5.608558,7956,8310,8185
5.6188,7934,8310,8185
5.630224,7983,8315,8174
5.639166,7940,8308,8177
5.648109,7945,8310,8182
5.657048,7983,8315,8185
5.668074,7956,8310,8182
5.677021,7972,8308,8182
5.68856,7953,8313,8172
5.69748,7983,8308,8174
5.708882,7964,8308,8185
5.719893,7988,8308,8180
5.725889,7991,8308,8187
5.739968,8000,8308,8185
5.748904,7986,8308,8190
5.757849,7975,8304,8180
5.766385,7961,8308,8182
5.777269,7978,8308,8177
5.788516,8012,8310,8182
5.800156,7978,8308,8177
5.809116,8007,8310,8182
5.818091,7978,8308,8180
5.827033,7980,8308,8182
5.838643,7964,8308,8174
5.847656,7970,8308,8185
5.859187,7959,8308,8182
5.869893,7961,8308,8185
5.878372,7978,8310,8180
5.889159,7988,8301,8180
5.897846,7988,8308,8174
5.906943,7970,8308,8177
5.9185,7988,8304,8180
5.927423,7972,8308,8185
5.938964,8003,8308,8182
5.947912,8034,8301,8187
5.956063,7995,8299,8174
5.96942,8015,8304,8174
5.978383,8007,8299,8177
5.986875,7970,8294,8180
5.995864,7972,8301,8182
6.009979,8003,8308,8180
6.01962,7986,8301,8180
6.025885,7961,8304,8180
6.039124,7964,8304,8177
6.047267,7970,8308,8182
6.055819,7956,8308,8182
6.067021,7942,8304,8177
6.078476,8045,8308,8182
6.089392,7988,8308,8185
6.098347,7988,8308,8174
6.109876,7975,8308,8180
6.116245,8000,8308,8169
6.127122,8015,8308,8174
6.13601,8007,8301,8177
6.146684,8074,8296,8174
6.15815,8042,8299,8174
6.166419,8045,8296,8174
6.177106,8047,8291,8185
6.187406,8072,8286,8182
6.198166,8077,8291,8180
6.206701,8092,8286,8180
6.218281,8077,8283,8177
6.226946,8061,8283,8180
6.238436,8097,8281,8182
6.249,8094,8283,8174
6.257969,8085,8278,8182
6.26911,8092,8278,8180
6.277832,8097,8278,8185
6.288575,8106,8283,8180
6.299133,8136,8276,8182
6.308101,8109,8270,8177
6.319504,8125,8281,8177
6.325844,8131,8273,8177
6.33753,8166,8268,8185
6.349041,8155,8268,8182
6.357989,8163,8268,8182
6.366953,8152,8268,8180
6.375958,8163,8257,8177
6.389099,8198,8255,8182
6.398052,8177,8250,8180
6.409623,8227,8252,8180
6.416067,8208,8250,8180
6.427573,8225,8250,8182
6.436563,8219,8245,8185
6.448113,8235,8245,8182
6.456533,8241,8242,8182
6.46812,8252,8242,8182
6.476253,8260,8237,8177
6.48778,8283,8232,8185
6.496876,8293,8232,8185
6.504938,8299,8230,8180
6.516433,8331,8224,8182
6.527286,8372,8219,8185
6.53609,8404,8217,8185
6.547322,8447,8209,8185
6.556291,8495,8206,8182
6.567631,8533,8199,8180
6.578768,8573,8193,8182
6.590694,8603,8188,8182
6.596155,8632,8183,8182
6.60754,8678,8178,8185
6.618789,8725,8178,8185
6.62497,8772,8175,8185
6.638763,8916,8178,8192
6.645124,9047,8181,8185
6.656639,9179,8175,8198
6.665632,9310,8175,8203
6.676961,9457,8181,8208
6.685899,9601,8181,8213
6.696458,9732,8178,8221
6.707983,9847,8178,8221
6.71656,9932,8181,8221
6.727817,10009,8181,8223
6.738439,10079,8181,8228
6.74734,10141,8181,8231
6.755823,10199,8181,8238
6.764788,10247,8181,8238
6.778871,10290,8178,8241
6.787838,10327,8181,8241
6.796832,10351,8181,8243
6.808312,10380,8181,8238
6.81467,10396,8178,8241
6.828777,10413,8181,8235
6.835146,10487,8181,8226
6.846218,10547,8181,8213
6.854683,10609,8178,8208
6.866226,10665,8181,8205
6.877584,10714,8181,8198
6.886533,10750,8181,8195
6.898067,10790,8181,8192
6.907012,10822,8181,8190
6.918725,10853,8181,8190
6.924953,10878,8181,8187
6.938363,10904,8181,8187
6.944671,10925,8181,8182
6.955913,10944,8181,8185
6.966779,10962,8181,8187
6.975662,10976,8181,8185
6.987052,10981,8181,8185
6.995571,10984,8181,8185
7.00711,10979,8181,8185
7.018409,10976,8178,8185
7.026674,10971,8181,8185
7.038056,10965,8181,8182
7.046144,10962,8181,8182
7.055065,10955,8181,8185
7.06395,10947,8181,8182
7.077721,10936,8181,8185
7.088659,10923,8181,8185
7.095109,10909,8181,8182
7.106625,10892,8181,8182
7.115569,10878,8181,8180
7.12715,10866,8181,8182
7.135902,10861,8181,8182
7.14466,10850,8181,8182
7.155664,10850,8181,8182
7.166757,10838,8181,8182
7.175355,10833,8181,8177
7.186413,10825,8178,8180
7.19456,10811,8181,8180
7.207794,10798,8181,8180
7.216112,10781,8181,8185
7.226924,10766,8181,8182
7.235837,10750,8178,8182
7.246949,10733,8181,8182
7.255302,10716,8181,8185
7.266571,10700,8181,8182
7.274748,10680,8181,8182
7.286254,10663,8181,8182
7.297794,10649,8181,8182
7.30416,10638,8181,8185
7.315283,10622,8181,8185
7.324234,10617,8181,8185
7.338101,10619,8181,8185
7.347119,10622,8181,8185
7.355958,10628,8181,8182
7.364897,10641,8181,8182
7.376473,10647,8181,8185
7.385437,10657,8181,8182
7.3968,10660,8181,8185
7.405682,10665,8178,8185
7.417228,10668,8181,8185
7.426176,10668,8178,8182
7.4348,10672,8178,8182
7.445847,10668,8178,8182
7.457389,10665,8178,8180
7.466348,10657,8175,8185
7.474951,10649,8173,8182
7.483897,10647,8178,8185
7.495394,10644,8175,8185
7.506923,10641,8178,8182
7.515126,10633,8178,8182
7.523467,10644,8175,8185
7.537151,10647,8178,8185
7.543581,10649,8181,8185
7.556944,10647,8181,8185
7.56572,10649,8181,8185
7.574658,10647,8181,8185
7.586187,10649,8181,8182
7.595156,10652,8181,8182
7.606359,10652,8181,8182
7.615295,10649,8181,8185
7.62682,10652,8178,8185
7.635778,10652,8178,8182
7.644723,10652,8175,8185
7.65332,10655,8178,8185
7.664703,10652,8175,8182
7.676246,10655,8175,8185
7.685169,10652,8175,8185
7.696775,10649,8175,8182
7.705707,10647,8178,8182
7.717226,10638,8178,8185
7.726163,10628,8175,8185
7.735127,10619,8178,8182
7.744077,10617,8181,8182
7.755622,10609,8181,8182
7.764684,10606,8181,8182
7.776151,10603,8181,8185
7.784622,10597,8181,8185
7.796117,10597,8181,8182
7.80731,10594,8181,8185
7.813672,10585,8181,8185
7.824904,10580,8181,8182
7.835741,10577,8181,8185
7.843893,10571,8181,8185
7.854789,10569,8181,8182
7.866154,10566,8181,8182
7.874932,10558,8181,8185
7.886505,10550,8181,8182
7.895456,10541,8181,8182
7.903987,10535,8181,8182
7.91293,10527,8181,8182
7.926993,10522,8181,8185
7.935931,10514,8181,8182
7.944902,10508,8181,8182
7.953841,10496,8181,8182
7.965375,10494,8181,8182
7.973671,10482,8181,8185
7.985185,10474,8178,8182
