Time [s],Gauge Pressure,Inspiratory differenrtial pressure,Expiratory differenrtial pressure
0,10896,8178,8182
0.0236000000000018,10898,8181,8185
0.0285579999999968,10912,8178,8185
0.0296230000000008,10928,8178,8185
0.0387109999999993,10944,8181,8185
0.0479240000000019,10955,8181,8185
0.0592320000000015,10965,8178,8185
0.0703839999999971,10971,8181,8187
0.0766479999999987,10968,8178,8185
0.0877979999999994,10958,8181,8182
0.0967470000000006,10942,8178,8182
0.110138999999997,10920,8178,8182
0.119875999999998,10906,8181,8185
0.151741999999999,10889,8178,8180
0.154395999999998,10878,8178,8185
0.155316999999997,10864,8178,8182
0.155627000000003,10861,8178,8187
0.165894999999999,10864,8178,8185
0.178353999999999,10878,8178,8185
0.187281999999996,10896,8178,8187
0.199807999999997,10917,8178,8185
0.207974,10942,8178,8185
0.218544999999999,10973,8178,8185
0.229687999999996,11000,8178,8185
0.238400999999996,11023,8178,8185
0.249032999999997,11042,8178,8185
0.257587000000001,11057,8181,8185
0.268723000000001,11066,8181,8185
0.277605000000001,11068,8181,8185
0.286513999999997,11068,8181,8185
0.297513000000002,11066,8178,8185
0.306461999999996,11066,8181,8185
0.319632999999996,11066,8181,8185
0.328133000000001,11071,8178,8185
0.337159999999997,11071,8178,8185
0.347228999999999,11077,8178,8187
0.355398999999998,11079,8181,8185
0.368077,11082,8181,8182
0.375892999999998,11090,8181,8182
0.388497000000001,11093,8178,8185
0.396326999999999,11095,8181,8185
0.406408999999996,11098,8181,8185
0.417960999999998,11101,8181,8185
0.427039000000001,11106,8178,8185
0.438482999999998,11109,8181,8185
0.449050999999997,11114,8181,8185
0.455100999999999,11128,8181,8185
0.465781,11146,8181,8187
0.479183999999997,11173,8181,8185
0.487276000000001,11201,8181,8187
0.498354999999997,11226,8181,8182
0.506912999999997,11252,8181,8185
0.515858999999999,11279,8181,8187
0.529745999999996,11307,8178,8185
0.538691999999998,11336,8181,8187
0.547640000000001,11355,8181,8185
0.556525000000001,11380,8181,8185
0.567866000000002,11399,8181,8185
0.576304999999998,11416,8181,8187
0.587727000000001,11421,8178,8185
0.599142999999998,11433,8181,8185
0.608106999999997,11436,8181,8185
0.619695999999998,11433,8178,8185
0.626056999999996,11425,8181,8185
0.637591,11413,8181,8182
0.646538,11396,8181,8182
0.658082,11377,8181,8185
0.666452,11366,8181,8182
0.678238999999998,11347,8181,8182
0.687759,11339,8181,8185
0.696751999999996,11318,8181,8182
0.708412000000003,11302,8178,8182
0.717376000000002,11279,8181,8185
0.728876999999997,11258,8178,8185
0.737817999999997,11231,8181,8185
0.748933999999998,11223,8181,8185
0.757409000000003,11220,8181,8185
0.766021000000002,11223,8178,8185
0.777360000000002,11220,8178,8187
0.787793000000001,11223,8178,8185
0.796272999999999,11215,8175,8185
0.805151000000002,11218,8178,8187
0.818536000000002,11220,8175,8185
0.8294,11239,8178,8185
0.837310000000002,11255,8178,8185
0.846224999999997,11279,8178,8185
0.857413000000001,11299,8178,8182
0.868434000000001,11324,8181,8185
0.876860000000001,11342,8181,8187
0.887611999999997,11353,8178,8187
0.895837999999998,11366,8181,8185
0.906385999999998,11372,8181,8185
0.917760000000001,11380,8181,8185
0.928638999999997,11382,8181,8185
0.937578999999999,11382,8181,8185
0.948509000000001,11382,8178,8187
0.958714000000001,11385,8178,8185
0.967632999999999,11382,8178,8185
0.976188999999998,11382,8181,8185
0.987360000000002,11380,8178,8185
0.998573,11385,8181,8185
1.006861,11402,8178,8185
1.015562,11416,8181,8187
1.024532,11441,8178,8187
1.038712,11464,8178,8182
1.047666,11488,8181,8187
1.056613,11505,8181,8185
1.065591,11528,8181,8185
1.074047,11544,8181,8185
1.087698,11562,8181,8185
1.095587,11572,8178,8182
1.106667,11589,8181,8182
1.117801,11594,8181,8182
1.126783,11597,8178,8182
1.137741,11594,8178,8180
1.146727,11586,8178,8177
1.157923,11581,8181,8185
1.166877,11575,8178,8182
1.179431,11567,8178,8182
1.185188,11564,8178,8182
1.195577,11559,8181,8185
1.208325,11559,8178,8185
1.21707,11570,8178,8185
1.225699,11572,8181,8187
1.23664,11586,8181,8182
1.245669,11600,8181,8182
1.256468,11612,8178,8185
1.26768,11618,8178,8187
1.27564,11626,8181,8187
1.285477,11634,8178,8185
1.296092,11639,8178,8182
1.307713,11648,8178,8182
1.316334,11650,8178,8182
1.327742,11656,8178,8182
1.336836,11656,8178,8185
1.345558,11662,8178,8182
1.356928,11668,8181,8187
1.368217,11668,8181,8187
1.377175,11668,8181,8185
1.388602,11668,8181,8187
1.394916,11665,8178,8185
1.406348,11658,8178,8185
1.414881,11653,8178,8187
1.428618,11650,8181,8185
1.435104,11642,8178,8185
1.446226,11637,8178,8187
1.457229,11631,8181,8185
1.465747,11626,8181,8185
1.477274,11621,8178,8187
1.48557,11615,8178,8182
1.494194,11602,8183,8182
1.507429,11591,8181,8185
1.515518,11586,8181,8185
1.526511,11578,8181,8185
1.53751,11575,8181,8182
1.547096,11570,8181,8182
1.555262,11567,8181,8185
1.564068,11564,8183,8182
1.575381,11564,8181,8182
1.584293,11562,8181,8187
1.59814,11564,8181,8185
1.606513,11564,8181,8185
1.615323,11559,8181,8185
1.625857,11556,8181,8185
1.634683,11547,8178,8185
1.645863,11534,8181,8185
1.654446,11525,8178,8185
1.665952,11511,8181,8187
1.677468,11505,8181,8182
1.68628,11502,8181,8182
1.694585,11499,8178,8187
1.706018,11496,8178,8185
1.716548,11494,8178,8185
1.72538,11488,8178,8187
1.733582,11486,8181,8185
1.744627,11480,8181,8185
1.755918,11472,8178,8185
1.764705,11464,8178,8185
1.775507,11461,8181,8182
1.782705,11458,8181,8187
1.794529,11456,8181,8185
1.805289,11456,8178,8185
1.81685,11453,8181,8185
1.825023,11450,8181,8182
1.835926,11448,8181,8185
1.847449,11441,8178,8185
1.856489,11441,8181,8185
1.86543,11445,8181,8185
1.876988,11445,8181,8185
1.885962,11450,8181,8185
1.897517,11453,8181,8185
1.903889,11456,8178,8185
1.915002,11458,8175,8187
1.927585,11461,8175,8187
1.936247,11458,8178,8185
1.947488,11458,8178,8185
1.953884,11461,8175,8185
1.964892,11456,8175,8185
1.976408,11448,8178,8185
1.987638,11439,8178,8187
1.99354,11436,8175,8185
2.00474,11430,8175,8185
2.013357,11425,8178,8187
2.027477,11428,8181,8185
2.033844,11425,8181,8185
2.044661,11425,8181,8185
2.055839,11425,8178,8185
2.066774,11419,8178,8185
2.075273,11419,8181,8185
2.084245,11416,8178,8185
2.095812,11410,8181,8185
2.103959,11413,8181,8185
2.115061,11413,8181,8187
2.126006,11416,8175,8185
2.134946,11416,8175,8187
2.146281,11416,8175,8187
2.1547,11425,8175,8185
2.163405,11430,8175,8187
2.172684,11436,8175,8187
2.186401,11445,8178,8187
2.192417,11456,8178,8185
2.203739,11464,8178,8185
2.212838,11472,8175,8187
2.224055,11486,8178,8185
2.235203,11496,8175,8185
2.246723,11507,8178,8185
2.255276,11517,8178,8185
2.263441,11525,8178,8185
2.276225,11528,8178,8187
2.284547,11539,8178,8185
2.292921,11539,8178,8187
2.304335,11544,8178,8185
2.315879,11547,8178,8185
2.327212,11554,8175,8185
2.333569,11556,8175,8182
2.344507,11554,8175,8185
2.356049,11554,8175,8185
2.36436,11554,8178,8187
2.375227,11559,8175,8182
2.385325,11562,8178,8185
2.393818,11562,8178,8187
2.4049,11567,8178,8185
2.41641,11570,8178,8185
2.425125,11570,8178,8180
2.433582,11572,8181,8180
2.446803,11570,8178,8182
2.455747,11564,8178,8182
2.46418,11559,8181,8182
2.472923,11556,8178,8182
2.484248,11550,8178,8180
2.492815,11547,8178,8182
2.504286,11554,8178,8182
2.515369,11556,8181,8182
2.523529,11559,8181,8185
2.535012,11559,8178,8187
2.546012,11554,8181,8182
2.554536,11547,8181,8185
2.566074,11542,8181,8182
2.574784,11536,8181,8185
2.585399,11536,8181,8185
2.595787,11539,8178,8185
2.604553,11544,8181,8187
2.615804,11554,8181,8187
2.624772,11562,8181,8182
2.633137,11570,8181,8182
2.644192,11572,8175,8182
2.652283,11570,8178,8182
2.66587,11572,8178,8182
2.674528,11570,8175,8182
2.682478,11559,8178,8182
2.696048,11554,8173,8182
2.705,11542,8178,8182
2.713802,11536,8178,8182
2.722568,11528,8175,8185
2.73407,11520,8178,8182
2.742432,11517,8178,8185
2.753731,11514,8178,8185
2.764962,11514,8181,8185
2.773914,11511,8178,8185
2.78506,11507,8181,8185
2.793855,11499,8181,8185
2.805419,11494,8181,8185
2.814118,11486,8178,8185
2.825131,11475,8181,8185
2.833815,11464,8178,8185
2.845521,11458,8181,8185
2.851688,11450,8181,8185
2.863258,11439,8181,8185
2.874794,11430,8181,8185
2.885018,11419,8181,8185
2.89291,11410,8178,8185
2.904212,11396,8178,8185
2.915463,11380,8178,8182
2.926098,11366,8181,8182
2.932471,11355,8181,8187
2.94401,11347,8178,8185
2.952978,11344,8178,8185
2.964251,11344,8175,8185
2.973025,11350,8178,8182
2.981513,11350,8175,8185
2.995644,11350,8178,8185
3.00391,11350,8175,8185
3.012655,11344,8178,8185
3.023111,11342,8178,8182
3.031682,11334,8178,8185
3.045296,11324,8178,8182
3.055853,11313,8178,8185
3.062215,11302,8181,8182
3.073316,11294,8181,8185
3.084838,11282,8181,8182
3.096141,11276,8181,8185
3.103833,11274,8178,8185
3.111473,11268,8178,8185
3.124653,11266,8181,8185
3.135765,11260,8178,8185
3.142139,11255,8181,8185
3.153676,11252,8178,8185
3.164685,11249,8181,8182
3.172854,11247,8178,8185
3.183866,11244,8181,8185
3.193004,11239,8178,8185
3.203978,11231,8181,8185
3.215435,11228,8178,8185
3.223851,11226,8181,8182
3.231631,11228,8181,8185
3.242633,11231,8181,8185
3.253842,11234,8181,8185
3.265372,11231,8178,8182
3.271746,11228,8181,8187
3.282923,11228,8181,8185
3.294478,11231,8181,8185
3.30591,11228,8181,8185
3.312273,11228,8178,8185
3.323573,11223,8178,8185
3.332311,11223,8178,8187
3.34309,11223,8181,8185
3.351573,11228,8178,8185
3.362594,11241,8178,8185
3.373687,11247,8181,8185
3.382674,11247,8178,8185
3.394221,11252,8178,8185
3.403223,11255,8181,8187
3.414058,11252,8181,8185
3.422208,11247,8181,8185
3.433563,11241,8181,8185
3.444493,11244,8181,8182
3.452807,11247,8178,8185
3.463199,11249,8181,8185
3.471848,11252,8178,8185
3.482973,11255,8181,8185
3.491908,11255,8181,8185
3.503434,11258,8178,8185
3.514501,11263,8178,8187
3.522637,11271,8178,8185
3.531612,11271,8178,8187
3.544893,11268,8178,8185
3.553827,11263,8178,8185
3.56264,11258,8181,8185
3.573725,11252,8181,8182
3.584892,11247,8178,8185
3.594063,11241,8181,8182
3.605227,11239,8181,8187
3.611656,11234,8181,8185
3.623095,11231,8178,8182
3.632113,11228,8181,8185
3.64269,11226,8181,8185
3.650866,11223,8181,8187
3.662103,11218,8181,8185
3.673462,11212,8181,8182
3.684627,11209,8181,8185
3.693132,11207,8175,8185
3.701634,11207,8175,8185
3.712149,11209,8175,8182
3.720887,11207,8178,8185
3.734967,11209,8178,8182
3.741325,11209,8175,8185
3.752753,11212,8175,8185
3.761163,11215,8175,8185
3.772474,11218,8175,8185
3.783653,11215,8175,8185
3.792113,11215,8175,8185
3.803681,11209,8181,8185
3.811836,11204,8178,8185
3.820778,11199,8178,8182
3.832334,11193,8181,8185
3.843414,11188,8181,8185
3.853782,11185,8181,8185
3.861641,11180,8181,8185
3.872451,11173,8181,8185
3.883903,11160,8178,8182
3.892867,11152,8178,8180
3.904189,11149,8181,8182
3.910556,11142,8178,8182
3.92173,11146,8178,8182
3.933246,11146,8178,8187
3.944814,11146,8178,8185
3.951208,11146,8181,8185
3.961604,11146,8178,8185
3.972647,11149,8178,8185
3.981672,11152,8181,8185
3.992714,11154,8178,8185
4.003947,11160,8181,8180
4.012872,11162,8181,8182
4.024435,11162,8181,8182
4.033394,11165,8181,8185
4.042365,11168,8181,8185
4.050799,11168,8181,8185
4.061697,11162,8178,8187
4.07257,11160,8181,8187
4.081489,11162,8178,8185
4.092948,11160,8178,8185
4.104158,11157,8181,8185
4.110526,11149,8175,8185
4.122069,11146,8178,8185
4.131013,11140,8178,8187
4.142546,11137,8178,8185
4.151526,11137,8178,8185
4.162706,11134,8175,8185
4.170914,11134,8178,8185
4.18176,11132,8178,8185
4.191833,11128,8175,8185
4.20336,11128,8178,8185
4.212284,11123,8178,8182
4.22317,11123,8178,8187
4.231722,11128,8181,8185
4.243266,11123,8178,8185
4.251789,11125,8178,8185
4.263332,11128,8178,8182
4.272275,11123,8178,8182
4.280683,11114,8181,8185
4.292153,11109,8178,8185
4.30304,11104,8178,8185
4.311302,11098,8181,8185
4.320262,11093,8178,8185
4.331727,11087,8181,8185
4.342381,11079,8178,8185
4.351169,11071,8178,8185
4.362283,11063,8178,8185
4.373023,11063,8178,8185
4.381965,11068,8178,8185
4.393486,11068,8181,8185
4.401922,11074,8178,8185
4.413344,11079,8178,8185
4.419215,11087,8181,8185
4.433063,11098,8181,8185
4.442012,11104,8181,8185
4.453541,11112,8178,8182
4.459915,11125,8181,8182
4.471034,11137,8181,8182
4.47965,11154,8181,8185
4.490623,11162,8178,8182
4.501542,11168,8178,8185
4.510245,11173,8181,8185
4.521138,11177,8181,8185
4.530077,11180,8181,8185
4.543869,11185,8181,8182
4.550322,11188,8181,8187
4.561896,11201,8181,8185
4.570816,11209,8181,8185
4.582339,11215,8181,8185
4.590882,11220,8178,8187
4.601715,11231,8178,8185
4.612316,11239,8181,8185
4.620465,11247,8178,8185
4.629405,11252,8181,8187
4.643169,11258,8183,8182
4.651743,11258,8181,8187
4.663303,11263,8181,8182
4.672207,11268,8183,8185
4.681099,11274,8181,8185
4.690055,11279,8181,8185
4.701024,11276,8183,8182
4.709387,11276,8181,8185
4.719911,11276,8181,8185
4.730714,11274,8181,8182
4.739757,11276,8175,8185
4.751364,11274,8175,8185
4.759935,11274,8175,8185
4.77108,11274,8175,8185
4.782719,11271,8175,8185
4.791529,11266,8178,8185
4.803102,11260,8175,8187
4.809325,11263,8178,8182
4.820864,11258,8175,8185
4.829124,11252,8175,8185
4.840345,11247,8178,8185
4.848575,11241,8181,8182
4.861903,11231,8178,8182
4.870654,11223,8178,8185
4.883459,11215,8181,8185
4.889809,11207,8178,8185
4.901373,11199,8178,8182
4.909636,11188,8181,8185
4.92064,11182,8181,8185
4.928924,11177,8181,8185
4.939555,11171,8178,8185
4.949687,11165,8181,8182
4.960293,11160,8178,8185
4.971226,11152,8181,8185
4.97988,11146,8178,8182
4.991106,11137,8178,8185
5.001869,11125,8181,8185
5.010048,11112,8178,8185
5.021082,11101,8178,8182
5.028695,11087,8178,8185
5.039533,11077,8178,8185
5.050131,11071,8178,8185
5.060856,11068,8178,8185
5.069778,11068,8178,8185
5.081338,11074,8178,8185
5.090066,11077,8178,8182
5.101529,11079,8178,8185
5.110482,11079,8178,8185
5.121783,11077,8178,8185
5.129612,11077,8181,8182
5.140185,11074,8181,8185
5.151556,11074,8181,8182
5.160573,11071,8178,8185
5.172133,11068,8178,8182
5.180248,11059,8178,8185
5.189127,11054,8178,8185
5.200182,11042,8178,8180
5.208108,11031,8181,8185
5.221154,11020,8178,8185
5.228884,11011,8181,8185
5.239678,11000,8178,8185
5.250308,10995,8181,8180
5.259107,10990,8181,8185
5.27072,10990,8183,8185
5.279659,10992,8183,8182
5.290626,10992,8181,8182
5.301653,10992,8183,8187
5.31058,10995,8183,8185
5.319523,10995,8183,8185
5.331064,10990,8181,8182
5.342054,10987,8181,8185
5.350038,10979,8183,8185
5.361454,10973,8183,8180
5.369646,10965,8178,8182
5.381176,10955,8178,8185
5.38941,10942,8181,8182
5.398371,10931,8181,8182
5.412013,10925,8181,8182
5.420937,10920,8181,8182
5.432449,10920,8178,8182
5.441039,10917,8178,8182
5.449107,10912,8181,8182
5.4597,10906,8181,8182
5.468976,10898,8183,8182
5.482363,10889,8183,8182
5.488759,10878,8181,8185
5.500299,10870,8181,8182
5.509322,10861,8181,8182
5.520762,10856,8181,8185
5.52875,10844,8183,8185
5.540028,10836,8181,8185
5.550362,10833,8181,8182
5.558338,10825,8183,8185
5.569212,10817,8183,8185
5.580728,10811,8178,8182
5.58933,10803,8178,8187
5.600631,10798,8175,8185
5.611835,10795,8175,8185
5.618189,10792,8178,8185
5.629179,10787,8175,8185
5.638163,10784,8178,8182
5.652228,10781,8175,8182
5.658607,10776,8175,8185
5.666815,10771,8175,8180
5.678191,10776,8181,8185
5.691673,10776,8181,8185
5.697921,10779,8181,8182
5.711421,10779,8181,8182
5.719899,10779,8178,8185
5.731237,10781,8178,8185
5.737589,10784,8178,8185
5.751412,10787,8178,8185
5.760166,10784,8178,8182
5.770962,10779,8181,8185
5.779681,10769,8178,8185
5.790848,10763,8178,8182
5.799786,10758,8181,8185
5.811359,10758,8178,8185
5.820301,10761,8181,8187
5.828857,10766,8181,8185
5.83743,10779,8178,8182
5.848699,10787,8181,8185
5.860214,10795,8181,8182
5.868171,10800,8181,8185
5.878833,10803,8181,8185
5.8899,10803,8181,8185
5.90137,10809,8178,8182
5.907711,10809,8181,8185
5.920738,10806,8178,8185
5.931337,10806,8181,8182
5.940021,10803,8178,8182
5.951555,10803,8178,8185
5.957903,10806,8181,8185
5.969507,10814,8181,8185
5.978325,10819,8181,8185
5.990907,10822,8178,8182
5.997215,10830,8181,8182
6.00803,10828,8181,8185
6.019575,10830,8178,8185
6.028537,10825,8178,8185
6.039969,10825,8178,8182
6.050537,10822,8178,8182
6.059516,10814,8178,8182
6.070777,10809,8178,8185
6.076947,10806,8178,8182
6.088159,10800,8178,8182
6.098938,10792,8178,8185
6.107923,10790,8178,8182
6.118737,10779,8178,8182
6.126752,10766,8178,8185
6.140227,10755,8175,8182
6.148173,10742,8178,8182
6.160875,10733,8178,8185
6.167233,10725,8178,8185
6.176222,10719,8178,8182
6.189757,10705,8178,8185
6.198096,10695,8178,8185
6.209401,10684,8178,8185
6.220591,10672,8181,8182
6.229662,10663,8178,8182
6.240859,10655,8181,8185
6.249839,10647,8181,8182
6.258791,10641,8181,8182
6.266942,10630,8178,8182
6.278349,10619,8181,8180
6.289558,10611,8178,8185
6.298475,10606,8181,8185
6.309996,10597,8178,8185
6.31896,10582,8178,8182
6.330442,10571,8178,8182
6.336802,10566,8178,8180
6.350544,10558,8178,8182
6.356929,10550,8178,8182
6.368179,10541,8178,8185
6.377098,10532,8178,8185
6.388257,10524,8178,8185
6.39618,10524,8178,8185
6.410069,10522,8181,8182
6.418321,10516,8181,8185
6.426683,10514,8178,8185
6.437407,10511,8181,8185
6.448331,10508,8181,8180
6.458924,10500,8178,8185
6.467873,10494,8178,8185
6.479028,10487,8181,8185
6.489594,10482,8181,8187
6.497879,10476,8178,8185
6.50705,10468,8178,8185
6.518059,10463,8181,8182
6.529609,10460,8181,8182
6.538169,10452,8178,8182
6.547138,10447,8181,8185
6.556074,10447,8181,8185
6.57021,10447,8181,8182
6.579147,10438,8181,8182
6.590152,10430,8178,8185
6.596224,10425,8181,8182
6.609438,10419,8181,8185
6.619618,10413,8178,8180
6.628561,10408,8175,8182
6.63745,10401,8178,8180
6.646419,10401,8175,8182
6.660088,10401,8178,8182
6.668311,10396,8175,8180
6.676224,10396,8178,8182
6.687331,10396,8178,8182
6.698862,10396,8175,8182
6.708296,10390,8178,8182
6.71851,10390,8178,8182
6.727291,10388,8178,8185
6.738695,10388,8178,8182
6.747764,10390,8181,8185
6.759161,10388,8178,8182
6.768093,10393,8178,8180
6.77962,10393,8181,8182
6.788562,10393,8181,8182
6.800079,10393,8181,8185
6.806439,10393,8181,8187
6.818048,10405,8181,8185
6.826988,10408,8178,8185
6.839848,10419,8178,8185
6.845817,10428,8181,8185
6.856468,10438,8181,8185
6.868858,10447,8181,8185
6.87707,10457,8178,8185
6.888201,10468,8178,8187
6.898105,10476,8178,8185
6.907481,10476,8181,8185
6.91798,10479,8178,8185
6.926774,10476,8178,8185
6.938345,10479,8181,8185
6.947046,10479,8178,8182
6.957748,10479,8181,8185
6.968333,10479,8181,8182
6.979008,10476,8178,8185
6.987312,10476,8178,8185
6.99883,10479,8181,8185
7.009936,10484,8181,8182
7.016303,10484,8181,8185
7.027847,10484,8178,8182
7.036806,10479,8181,8185
7.048271,10476,8183,8180
7.058847,10474,8181,8185
7.067802,10471,8181,8182
7.078988,10468,8183,8182
7.087906,10468,8183,8185
7.099401,10468,8183,8182
7.108342,10463,8183,8182
7.119597,10455,8183,8185
7.128548,10447,8181,8185
7.137277,10438,8183,8182
7.146232,10433,8178,8185
7.157773,10430,8178,8185
7.16874,10428,8175,8185
7.179294,10422,8178,8185
7.185655,10419,8175,8185
7.196201,10416,8178,8185
7.20801,10413,8178,8182
7.219437,10410,8175,8182
7.228517,10410,8178,8185
7.237339,10413,8175,8185
7.245744,10413,8178,8185
7.25936,10410,8178,8185
7.268104,10410,8178,8182
7.277072,10410,8181,8185
7.286016,10410,8178,8185
7.297574,10410,8178,8185
7.306559,10408,8178,8185
7.318134,10405,8181,8185
7.326526,10401,8181,8185
7.33807,10393,8178,8182
7.349156,10385,8178,8182
7.358086,10374,8175,8182
7.367066,10371,8175,8182
7.376032,10369,8175,8180
7.387553,10366,8175,8182
7.398282,10366,8178,8185
7.40717,10357,8178,8180
7.418332,10351,8175,8182
7.426729,10343,8178,8182
7.438248,10338,8175,8185
7.447167,10330,8178,8182
7.456172,10327,8178,8185
7.467734,10324,8175,8185
7.476708,10322,8178,8185
7.488281,10322,8178,8185
7.497218,10322,8175,8180
7.508792,10319,8175,8180
7.517757,10319,8178,8185
7.529287,10324,8175,8182
7.53568,10327,8178,8185
7.547215,10327,8178,8185
7.556151,10330,8178,8182
7.567729,10330,8178,8182
7.576688,10327,8178,8182
7.587531,10322,8178,8185
7.598837,10319,8181,8182
7.607763,10316,8178,8182
7.616689,10314,8181,8185
7.625621,10314,8178,8182
7.636752,10314,8178,8182
