Time [s],Gauge Pressure,Inspiratory differenrtial pressure,Expiratory differenrtial pressure
0,10886,8178,8185
0.0216659999999962,10896,8178,8182
0.0268019999999964,10912,8178,8182
0.0278829999999957,10920,8178,8185
0.0326749999999976,10933,8178,8185
0.0412770000000009,10944,8178,8180
0.0506219999999971,10955,8178,8187
0.0623119999999986,10962,8178,8185
0.0714339999999964,10973,8178,8182
0.0825379999999996,10979,8175,8182
0.0912500000000023,10987,8178,8182
0.102215000000001,10998,8178,8187
0.110797999999996,11006,8178,8182
0.122368000000002,11015,8178,8185
0.131454999999995,11020,8178,8185
0.142842999999999,11031,8178,8187
0.149338999999998,11042,8178,8180
0.160899000000001,11050,8178,8180
0.170080999999996,11063,8178,8180
0.181809999999999,11077,8178,8182
0.190930999999999,11090,8178,8182
0.202675999999997,11093,8178,8185
0.21123,11104,8178,8185
0.222535999999998,11112,8178,8182
0.231674999999996,11120,8178,8182
0.240445000000001,11128,8181,8182
0.249307000000002,11137,8181,8185
0.260539999999999,11146,8181,8187
0.281185000000001,11152,8181,8187
0.281677000000002,11157,8181,8185
0.289522999999996,11165,8178,8187
0.300368999999996,11173,8181,8187
0.311630000000001,11180,8181,8185
0.320352,11191,8181,8187
0.331733999999997,11196,8181,8185
0.340167000000001,11207,8181,8185
0.350858000000002,11209,8178,8187
0.361742,11220,8178,8180
0.370539999999998,11228,8175,8182
0.379655,11239,8178,8185
0.391022999999997,11252,8178,8185
0.399360000000001,11258,8178,8185
0.411045999999999,11263,8178,8180
0.420249999999996,11263,8178,8177
0.428787,11268,8178,8182
0.442419999999998,11274,8178,8182
0.448825999999997,11279,8181,8185
0.462364000000001,11279,8181,8182
0.471739999999997,11282,8181,8182
0.482773999999999,11282,8181,8182
0.491521999999996,11282,8181,8185
0.500655000000002,11279,8178,8182
0.509772999999996,11282,8181,8182
0.520842999999999,11279,8181,8180
0.530740000000002,11276,8181,8182
0.541373,11274,8181,8182
0.551884999999999,11274,8181,8180
0.560397999999999,11271,8178,8185
0.572105000000001,11271,8178,8185
0.578471999999998,11271,8178,8185
0.589276999999996,11276,8178,8187
0.597896999999996,11276,8178,8185
0.609552000000001,11279,8178,8187
0.620958000000002,11274,8178,8185
0.629661999999996,11276,8178,8187
0.640875000000001,11276,8178,8187
0.652197000000001,11268,8178,8187
0.660294,11274,8181,8182
0.669292999999996,11268,8181,8185
0.678306999999997,11263,8181,8185
0.689714000000002,11263,8181,8185
0.701347999999996,11258,8181,8185
0.710394000000001,11258,8181,8185
0.719457999999996,11255,8181,8185
0.731135999999999,11258,8181,8185
0.739995,11260,8181,8185
0.751604,11258,8181,8185
0.758088000000001,11263,8181,8182
0.772171,11260,8178,8185
0.780944999999996,11263,8178,8185
0.789012,11268,8178,8182
0.800882999999999,11268,8178,8182
0.812391999999996,11274,8178,8187
0.821573999999998,11268,8178,8185
0.832054999999997,11268,8178,8182
0.840325,11263,8178,8185
0.849246999999998,11266,8178,8187
0.858979999999995,11266,8178,8187
0.870727000000002,11260,8175,8182
0.938758,11260,8175,8182
0.943605999999996,11263,8175,8182
0.944085000000001,11258,8173,8180
0.944434000000001,11260,8175,8182
0.944701999999999,11258,8175,8182
0.944929000000002,11252,8175,8182
0.945150999999996,11252,8175,8182
0.948033000000002,11249,8175,8185
0.961551,11247,8175,8182
0.968063000000001,11247,8175,8185
0.979464999999998,11249,8178,8185
0.988410000000002,11249,8178,8185
0.999870000000001,11249,8178,8187
1.008594,11249,8178,8187
1.019731,11249,8175,8182
1.028774,11244,8175,8185
1.040119,11239,8178,8185
1.049211,11239,8178,8185
1.060071,11241,8178,8182
1.068881,11244,8178,8182
1.080037,11247,8178,8182
1.088818,11249,8178,8182
1.100544,11258,8178,8180
1.109498,11266,8178,8182
1.121052,11268,8178,8180
1.130164,11271,8178,8182
1.138998,11271,8178,8185
1.147888,11266,8178,8182
1.159529,11266,8178,8182
1.170763,11258,8178,8182
1.17984,11255,8178,8182
1.191258,11249,8175,8182
1.200307,11244,8175,8182
1.211496,11239,8175,8182
1.217694,11234,8175,8185
1.229402,11228,8175,8185
1.240683,11228,8175,8182
1.249776,11220,8175,8180
1.258508,11209,8175,8182
1.267616,11207,8175,8182
1.28122,11201,8175,8182
1.287489,11191,8178,8182
1.301604,11182,8178,8182
1.308041,11173,8178,8182
1.319616,11165,8178,8182
1.33092,11154,8178,8182
1.340304,11152,8178,8185
1.349253,11142,8178,8180
1.357995,11137,8178,8185
1.369681,11137,8178,8182
1.381282,11134,8178,8185
1.387502,11137,8178,8185
1.398718,11142,8178,8185
1.407726,11140,8178,8182
1.421441,11142,8178,8187
1.428039,11142,8178,8185
1.436793,11149,8178,8182
1.448435,11149,8178,8185
1.459863,11149,8178,8185
1.47153,11154,8178,8182
1.478086,11149,8178,8185
1.489241,11142,8178,8185
1.498406,11140,8175,8187
1.50967,11134,8175,8182
1.518705,11128,8175,8185
1.529566,11117,8175,8182
1.53722,11109,8175,8182
1.550418,11098,8175,8187
1.556901,11087,8175,8187
1.565801,11082,8175,8185
1.580022,11074,8175,8180
1.591182,11063,8175,8182
1.597694,11050,8178,8180
1.608879,11034,8178,8180
1.620243,11023,8178,8180
1.629233,11003,8178,8182
1.640767,10995,8178,8182
1.646971,10984,8178,8180
1.660795,10976,8178,8182
1.669954,10968,8178,8180
1.678744,10958,8178,8177
1.68765,10947,8178,8180
1.699342,10942,8178,8182
1.70818,10923,8178,8185
1.71961,10914,8178,8182
1.728284,10904,8178,8185
1.739187,10892,8178,8187
1.750187,10873,8178,8190
1.75849,10861,8178,8187
1.767594,10838,8178,8187
1.779156,10828,8175,8182
1.787786,10811,8178,8187
1.799018,10795,8178,8185
1.810348,10781,8178,8187
1.816853,10769,8178,8185
1.825788,10752,8178,8187
1.838938,10736,8178,8182
1.848165,10725,8178,8185
1.857137,10714,8181,8182
1.867947,10705,8178,8185
1.878804,10692,8178,8182
1.887827,10689,8178,8185
1.89693,10689,8178,8185
1.908225,10677,8178,8185
1.917422,10675,8175,8185
1.92861,10672,8175,8185
1.937286,10675,8175,8182
1.948949,10672,8175,8182
1.957489,10668,8175,8182
1.969181,10668,8175,8182
1.980129,10668,8175,8185
1.986285,10665,8175,8180
1.997266,10660,8175,8180
2.008395,10655,8175,8182
2.017487,10652,8178,8180
2.029187,10647,8178,8182
2.038458,10633,8178,8185
2.049649,10625,8178,8180
2.058701,10609,8178,8182
2.067712,10603,8178,8180
2.07669,10585,8178,8180
2.087398,10577,8178,8180
2.095834,10566,8178,8180
2.110251,10561,8178,8185
2.116733,10552,8178,8182
2.130054,10543,8178,8180
2.138967,10541,8178,8182
2.150461,10535,8178,8182
2.156883,10538,8175,8182
2.168237,10541,8178,8185
2.176405,10541,8178,8182
2.187684,10547,8178,8182
2.199392,10547,8178,8180
2.205651,10552,8178,8180
2.217324,10555,8178,8182
2.228584,10558,8178,8182
2.239961,10561,8178,8180
2.246456,10563,8175,8180
2.257404,10566,8175,8182
2.269057,10569,8178,8182
2.277761,10574,8178,8177
2.286763,10574,8178,8182
2.298278,10574,8178,8182
2.307395,10577,8178,8182
2.319094,10577,8178,8182
2.327718,10574,8178,8182
2.339277,10571,8175,8182
2.346741,10571,8178,8182
2.360028,10563,8175,8182
2.3665,10561,8178,8180
2.378005,10552,8178,8180
2.387084,10550,8178,8180
2.398633,10541,8178,8180
2.407509,10541,8175,8177
2.419057,10532,8178,8182
2.427509,10527,8178,8177
2.439015,10524,8178,8182
2.447663,10522,8178,8180
2.456652,10522,8178,8180
2.468352,10516,8178,8185
2.477208,10519,8178,8182
2.488885,10514,8175,8182
2.497821,10514,8178,8185
2.509406,10514,8178,8182
2.515934,10514,8178,8182
2.529766,10514,8178,8182
2.536283,10514,8178,8177
2.548049,10514,8181,8177
2.556843,10519,8181,8182
2.568338,10522,8181,8182
2.577282,10524,8181,8182
2.588969,10527,8181,8185
2.598013,10530,8181,8182
2.609614,10532,8181,8182
2.61849,10538,8181,8185
2.627439,10535,8181,8180
2.636572,10538,8181,8185
2.648386,10541,8178,8180
2.657003,10538,8178,8182
2.66615,10541,8175,8185
2.676967,10538,8178,8182
2.686011,10541,8178,8180
2.69955,10541,8178,8180
2.706141,10538,8178,8182
2.717589,10535,8178,8180
2.726423,10530,8178,8182
2.737958,10530,8178,8182
2.749226,10527,8178,8185
2.755662,10524,8178,8182
2.766905,10522,8178,8182
2.776011,10522,8178,8180
2.787079,10519,8178,8180
2.798064,10519,8178,8177
2.807083,10516,8178,8180
2.818314,10516,8178,8182
2.827134,10511,8178,8180
2.839234,10505,8178,8180
2.847972,10505,8178,8182
2.856634,10503,8175,8182
2.86744,10496,8178,8182
2.878505,10496,8178,8180
2.88716,10500,8178,8180
2.897143,10490,8178,8180
2.906706,10484,8175,8180
2.916354,10484,8178,8182
2.924872,10479,8178,8185
2.935771,10482,8178,8182
2.947322,10476,8178,8182
2.956447,10474,8178,8182
2.965527,10471,8178,8182
2.977229,10466,8178,8180
2.986331,10463,8178,8185
2.998009,10466,8178,8185
3.00654,10463,8178,8185
3.017904,10460,8178,8182
3.02696,10460,8178,8180
3.038099,10455,8178,8180
3.047185,10449,8178,8177
3.055702,10444,8178,8180
3.063628,10438,8175,8182
3.074641,10430,8175,8182
3.08892,10425,8175,8182
3.095418,10413,8175,8180
3.107129,10408,8175,8182
3.116241,10399,8173,8180
3.127447,10388,8175,8180
3.136486,10385,8175,8180
3.147647,10380,8175,8180
3.158316,10371,8175,8180
3.167456,10371,8175,8182
3.176608,10366,8175,8180
3.185671,10360,8175,8180
3.196932,10357,8175,8180
3.205579,10351,8175,8180
3.217246,10351,8175,8180
3.226221,10349,8175,8182
3.235271,10343,8175,8182
3.245835,10341,8175,8182
3.257311,10335,8175,8182
3.266435,10333,8175,8182
3.275491,10330,8178,8185
3.287201,10327,8178,8185
3.298508,10327,8178,8185
3.305027,10330,8178,8185
3.316768,10324,8178,8185
3.325054,10330,8178,8180
3.337645,10322,8178,8182
3.344323,10322,8178,8180
3.357994,10319,8178,8180
3.36469,10316,8178,8180
3.376724,10314,8178,8177
3.388526,10303,8175,8180
3.39513,10301,8175,8182
3.406878,10293,8175,8182
3.415782,10287,8175,8180
3.427581,10282,8175,8177
3.434151,10279,8175,8177
3.448029,10274,8175,8180
3.45629,10274,8175,8182
3.468067,10268,8175,8180
3.474615,10263,8175,8182
3.483735,10255,8178,8180
3.498082,10252,8178,8180
3.5072,10244,8178,8177
3.518336,10238,8178,8180
3.524869,10236,8178,8180
3.535682,10229,8178,8180
3.546777,10224,8178,8180
3.555598,10215,8178,8180
3.566717,10212,8178,8182
3.576786,10204,8178,8180
3.585545,10199,8178,8180
3.597069,10193,8178,8180
3.605807,10185,8178,8177
3.617594,10177,8178,8182
3.626727,10170,8178,8177
3.638202,10165,8178,8180
3.644429,10162,8178,8180
3.655625,10160,8178,8177
3.664318,10157,8178,8177
3.675601,10154,8178,8180
3.687214,10149,8178,8182
3.695944,10152,8178,8180
3.705023,10154,8178,8182
3.716695,10154,8178,8180
3.725637,10157,8178,8185
3.73473,10154,8178,8182
3.746419,10162,8178,8180
3.757848,10160,8178,8182
3.766396,10165,8178,8182
3.774936,10162,8178,8177
3.783802,10168,8178,8177
3.795279,10170,8178,8180
3.80668,10170,8175,8180
3.815797,10168,8175,8185
3.824871,10170,8175,8182
3.834025,10177,8175,8180
3.845569,10174,8175,8180
3.856258,10177,8175,8180
3.863307,10182,8175,8182
3.875604,10180,8175,8182
3.885967,10182,8175,8182
3.89414,10185,8175,8182
3.904345,10188,8178,8180
3.914642,10188,8178,8182
3.925765,10193,8178,8180
3.937238,10193,8178,8180
3.943367,10196,8178,8180
3.957033,10196,8178,8182
3.962889,10193,8178,8182
3.976201,10193,8178,8182
3.981791,10196,8178,8182
3.995365,10193,8178,8182
4.004108,10190,8178,8180
4.01479,10196,8178,8180
4.0251,10190,8178,8180
4.035815,10190,8178,8182
4.044034,10190,8178,8180
4.054869,10188,8178,8180
4.065895,10177,8178,8180
4.07483,10177,8178,8177
4.08586,10168,8178,8180
4.096401,10154,8178,8177
4.10484,10152,8178,8180
4.113585,10143,8181,8180
4.125058,10138,8181,8180
4.136255,10130,8178,8182
4.144929,10130,8181,8180
4.155687,10123,8181,8177
4.166626,10123,8181,8177
4.176914,10121,8181,8177
4.185386,10115,8181,8180
4.196727,10118,8181,8180
4.202233,10115,8181,8180
4.213114,10109,8178,8180
4.226868,10112,8178,8180
4.235561,10109,8178,8185
4.244078,10109,8178,8180
4.252987,10112,8178,8182
4.265508,10109,8178,8180
4.277073,10112,8175,8180
4.28323,10118,8178,8177
4.293785,10121,8175,8180
4.305285,10123,8178,8182
4.315975,10130,8178,8182
4.324306,10130,8178,8177
4.335696,10135,8178,8182
4.346608,10133,8178,8182
4.355352,10141,8178,8180
4.365932,10141,8178,8180
4.373969,10143,8178,8180
4.383429,10143,8178,8180
4.393795,10146,8178,8180
4.404361,10146,8178,8180
4.412626,10146,8178,8180
4.423358,10149,8178,8180
4.434863,10146,8178,8177
4.443053,10149,8178,8180
4.45451,10152,8178,8177
4.465139,10154,8178,8180
4.473892,10157,8178,8177
4.485165,10160,8178,8180
4.49372,10162,8178,8182
4.505232,10170,8178,8182
4.513649,10180,8178,8180
4.524645,10190,8178,8177
4.535251,10199,8175,8180
4.543707,10207,8175,8185
4.553926,10218,8175,8182
4.563599,10227,8175,8182
4.574097,10236,8175,8182
4.58484,10249,8175,8182
4.593501,10252,8175,8185
4.605153,10260,8175,8180
4.613101,10271,8175,8180
4.624358,10276,8175,8180
4.635535,10276,8178,8180
4.643223,10282,8178,8180
4.654472,10287,8178,8180
4.665602,10293,8178,8180
4.674491,10295,8178,8180
4.685898,10301,8175,8180
4.694643,10303,8178,8182
4.705884,10303,8175,8180
4.712035,10310,8178,8180
4.726085,10310,8178,8182
4.734907,10316,8178,8182
4.746188,10319,8178,8182
4.752636,10327,8178,8180
4.76336,10327,8178,8182
4.774651,10335,8178,8182
4.783354,10333,8178,8182
4.792418,10335,8178,8182
4.803998,10338,8178,8182
4.814917,10338,8178,8180
4.825004,10343,8178,8180
4.836112,10343,8178,8182
4.846365,10346,8178,8180
4.852595,10341,8178,8180
4.863946,10341,8178,8185
4.874888,10338,8178,8180
4.882936,10338,8178,8180
4.893745,10333,8178,8182
4.903116,10333,8178,8182
4.912521,10327,8178,8180
4.923425,10324,8178,8180
4.933772,10319,8178,8180
4.943332,10316,8178,8180
4.954011,10314,8175,8177
4.965156,10310,8175,8180
4.974143,10307,8175,8182
4.985791,10307,8175,8180
4.996256,10310,8175,8182
5.00508,10310,8175,8180
5.013387,10310,8175,8182
5.024121,10307,8175,8180
5.035124,10303,8175,8182
5.042917,10298,8175,8180
5.051621,10293,8178,8180
5.062894,10285,8178,8180
5.074218,10276,8178,8180
5.085797,10268,8178,8182
5.092221,10263,8178,8180
5.103358,10255,8175,8177
5.115086,10244,8178,8182
5.125742,10241,8178,8177
5.134395,10233,8178,8177
5.142944,10227,8178,8177
5.15413,10218,8178,8180
5.163183,10212,8178,8180
5.174873,10204,8178,8180
5.183895,10199,8178,8180
5.192869,10193,8178,8180
5.201928,10182,8178,8180
5.215918,10177,8178,8180
5.222431,10170,8178,8177
5.233349,10162,8178,8182
5.242466,10152,8178,8182
5.251652,10143,8178,8177
5.263118,10135,8175,8180
5.273812,10123,8175,8182
5.282898,10118,8175,8180
5.294213,10115,8175,8177
5.303312,10104,8175,8177
5.315045,10101,8175,8177
5.324112,10098,8175,8180
5.332875,10090,8175,8180
5.345825,10087,8175,8177
5.35191,10085,8175,8180
5.363493,10079,8175,8177
5.372354,10074,8178,8182
5.384035,10071,8178,8180
5.393129,10063,8178,8180
5.40452,10066,8178,8177
5.413632,10063,8178,8180
5.423426,10063,8178,8177
5.432806,10055,8178,8180
5.443492,10060,8178,8177
5.452508,10060,8178,8182
5.463082,10049,8178,8182
5.471455,10049,8178,8180
5.482623,10044,8178,8182
5.493762,10041,8178,8180
5.502776,10035,8178,8180
5.511994,10035,8178,8180
5.523691,10031,8175,8180
5.534442,10028,8178,8182
5.543016,10026,8178,8180
5.554137,10023,8178,8180
5.562424,10020,8178,8180
5.572995,10020,8178,8180
5.582153,10015,8178,8177
5.593779,10007,8178,8180
5.602918,10001,8178,8180
5.614181,9999,8178,8177
5.623277,9993,8178,8177
5.635063,9988,8178,8177
5.644096,9973,8178,8180
5.653258,9962,8178,8177
5.662061,9957,8178,8182
5.673797,9954,8178,8180
5.682541,9946,8178,8180
5.694177,9934,8178,8180
5.703271,9921,8178,8177
5.712076,9906,8178,8177
5.721139,9895,8178,8180
5.73286,9882,8178,8174
5.741338,9874,8178,8180
5.752416,9871,8178,8180
5.760264,9866,8178,8182
5.77083,9866,8178,8180
5.782483,9868,8178,8180
5.793764,9874,8178,8182
5.802877,9874,8178,8182
5.814059,9890,8178,8185
5.822132,9901,8178,8180
5.833536,9918,8178,8185
5.84201,9937,8178,8185
5.854104,9946,8178,8182
5.862127,9960,8178,8182
5.873097,9965,8178,8185
5.881027,9977,8178,8182
5.891848,9985,8178,8182
5.901729,9985,8178,8185
5.911659,9993,8178,8182
5.922288,10001,8178,8182
5.931388,10004,8178,8180
5.9423,10007,8178,8180
5.954026,10012,8178,8182
5.963066,10015,8178,8180
5.974298,10018,8178,8182
5.982832,10018,8178,8182
5.991567,10015,8178,8182
6.000707,10015,8175,8180
6.012425,10012,8175,8180
6.021512,10015,8175,8180
6.03323,10015,8175,8180
6.044194,10015,8175,8177
6.053207,10018,8175,8180
6.064622,10018,8175,8182
6.073612,10020,8175,8182
6.082626,10026,8175,8180
6.091559,10026,8175,8182
6.102863,10026,8175,8180
6.111729,10026,8175,8180
6.123253,10020,8175,8180
6.132409,10018,8175,8182
6.144074,10012,8175,8180
6.153156,10012,8175,8180
6.161619,10007,8175,8182
6.172399,9999,8175,8180
6.181444,10001,8175,8180
6.193087,9993,8175,8182
6.201652,9990,8175,8180
6.213297,9988,8178,8180
6.222377,9988,8178,8180
6.234099,9990,8178,8180
6.243191,9999,8178,8180
6.252292,10001,8178,8180
6.261093,10009,8178,8180
6.272306,10018,8178,8182
6.28076,10020,8178,8180
6.292654,10026,8178,8182
6.301382,10039,8178,8182
6.311732,10047,8175,8180
6.320805,10057,8175,8182
6.332041,10066,8175,8180
6.343412,10071,8175,8182
6.35396,10079,8175,8182
6.362717,10087,8173,8182
6.372227,10093,8175,8180
6.381339,10101,8175,8182
6.393131,10112,8175,8182
6.402211,10118,8175,8182
6.413882,10123,8175,8182
6.420383,10130,8175,8180
6.432148,10130,8175,8177
6.441264,10130,8175,8182
6.453078,10126,8175,8180
6.459594,10123,8175,8180
6.470747,10112,8175,8177
6.481338,10104,8175,8177
6.492948,10090,8175,8180
6.501946,10082,8175,8182
6.512279,10060,8175,8174
6.521012,10035,8178,8177
6.532314,10007,8178,8177
6.540215,9985,8178,8177
6.55086,9952,8178,8177
6.562266,9921,8175,8177
6.571287,9890,8178,8177
6.583011,9855,8178,8177
6.591559,9804,8178,8177
6.602373,9785,8178,8177
6.612938,9765,8178,8177
6.62201,9737,8181,8177
6.632987,9715,8181,8177
6.641551,9685,8181,8177
6.650674,9654,8181,8177
6.661919,9626,8181,8177
6.670656,9596,8181,8174
6.679342,9553,8181,8177
6.690791,9507,8181,8177
6.701395,9457,8181,8177
6.710434,9393,8181,8177
6.721741,9332,8181,8177
6.732799,9257,8178,8177
6.741497,9179,8178,8177
6.753053,9096,8178,8177
6.75949,9015,8178,8177
6.768476,8924,8178,8177
6.779981,8832,8178,8177
6.790676,8733,8178,8177
6.801818,8632,8178,8177
6.810092,8519,8178,8177
6.821715,8406,8178,8177
6.833432,8288,8175,8177
6.839886,8188,8175,8177
6.851544,8147,8181,8177
6.860186,8097,8183,8177
6.871878,8058,8188,8177
6.882253,8026,8196,8174
6.890947,7991,8196,8177
6.899634,7975,8204,8177
6.910385,7948,8206,8177
6.922107,7923,8212,8177
6.931192,7895,8214,8177
6.942312,7884,8214,8177
6.952933,7870,8222,8177
6.959355,7859,8230,8177
6.970208,7838,8224,8177
6.979221,7832,8237,8177
6.988173,7809,8239,8180
6.999753,7804,8237,8177
7.011015,7781,8242,8177
7.01957,7791,8239,8177
7.031194,7787,8242,8174
7.042863,7752,8247,8177
7.051077,7741,8252,8174
7.062437,7721,8260,8174
7.07149,7733,8257,8174
7.082989,7738,8252,8174
7.089125,7726,8257,8174
7.099924,7746,8263,8172
7.111116,7718,8263,8182
7.120158,7754,8260,8180
7.131818,7726,8260,8182
7.140897,7726,8255,8172
7.152461,7718,8265,8174
7.161494,7713,8263,8180
7.172566,7696,8263,8180
7.179013,7696,8265,8172
7.190655,7707,8263,8182
7.199369,7688,8273,8174
7.210266,7688,8265,8174
7.222162,7705,8278,8177
7.228984,7674,8286,8177
7.240611,7674,8281,8169
7.249723,7652,8283,8177
7.260557,7702,8281,8180
7.271591,7674,8283,8185
7.280659,7660,8283,8180
7.28918,7660,8281,8180
7.302937,7666,8288,8174
7.30935,7652,8288,8174
7.32098,7647,8283,8177
7.329732,7674,8278,8177
7.341358,7644,8283,8174
7.35342,7688,8288,8180
7.358316,7671,8276,8172
7.369589,7655,8278,8182
7.38025,7649,8291,8177
7.389453,7668,8283,8180
7.400707,7674,8283,8180
7.409788,7647,8286,8177
7.421463,7652,8288,8174
7.432818,7688,8281,8177
7.43909,7691,8286,8177
7.450699,7658,8283,8174
7.459713,7674,8299,8182
7.471347,7632,8288,8177
7.477825,7663,8286,8182
7.489294,7666,8291,8182
7.500532,7682,8283,8177
7.512247,7676,8283,8177
7.521268,7671,8291,8182
7.530403,7668,8291,8163
7.539057,7652,8288,8187
7.549763,7682,8286,8185
7.558801,7679,8283,8187
7.570424,7688,8278,8185
7.581677,7705,8270,8185
7.590697,7707,8270,8169
7.602174,7705,8273,8174
7.607812,7729,8270,8172
7.619161,7715,8257,8174
7.629966,7718,8265,8172
7.641848,7738,8255,8177
7.648142,7738,8260,8174
7.65946,7754,8268,8169
7.668089,7743,8257,8174
7.682049,7762,8265,8180
7.688605,7757,8260,8177
7.700236,7760,8265,8177
