Time [s],Gauge Pressure [cmH2O],Inspiratory differenrtial pressure [cmH2O],Expiratory differenrtial pressure [cmH2O]
0,4.31265213737696,-0.15019186548079,0.17164784626376
0.00321500000000441,4.63449184912151,-0.0965519135233649,0.17164784626376
0.0197080000000014,6.24369040784426,-0.118007894306335,0
0.0212649999999996,7.31648944699276,-0.118007894306335,-0.02145598078297
0.0265800000000027,7.73488107226068,-0.118007894306335,-0.0750959327403949
0.0331440000000001,8.29273657261789,-0.118007894306335,-0.0750959327403949
0.0448160000000044,8.71112819788581,-0.118007894306335,-0.0750959327403949
0.0541610000000006,9.01151192884739,-0.118007894306335,-0.10727990391485
0.0655120000000053,9.31189565980897,-0.118007894306335,-0.10727990391485
0.0744840000000053,9.69810331390243,-0.118007894306335,-0.12873588469782
0.0860040000000026,9.9341191025151,-0.118007894306335,-0.10727990391485
0.0949830000000063,10.2130468526937,-0.118007894306335,-0.10727990391485
0.103963,10.4168786701319,-0.118007894306335,-0.10727990391485
0.112962000000003,10.6743504395276,-0.118007894306335,-0.12873588469782
0.123571000000005,10.8138143146169,-0.118007894306335,-0.12873588469782
0.132534,10.9854621608806,-0.15019186548079,-0.0750959327403949
0.144012000000004,11.1356540263614,-0.15019186548079,-0.0750959327403949
0.152359000000004,11.2429339302763,-0.15019186548079,-0.10727990391485
0.163643,11.3609418245826,-0.15019186548079,-0.0750959327403949
0.174932000000005,11.5647736420208,-0.15019186548079,-0.0750959327403949
0.183687000000006,11.7793334498505,-0.15019186548079,-0.0536399519574249
0.192688000000004,11.9938932576802,-0.15019186548079,-0.0536399519574249
0.204272000000003,12.2299090462929,-0.15019186548079,-0.0750959327403949
0.215729000000003,12.3693729213822,-0.15019186548079,-0.02145598078297
0.222174000000003,12.6697566523438,-0.118007894306335,-0.0750959327403949
0.232539000000003,12.8199485178246,-0.15019186548079,-0.0750959327403949
0.241306000000002,13.0023243544798,-0.118007894306335,-0.02145598078297
0.252485,13.2168841623095,-0.118007894306335,-0.0536399519574249
0.265811000000006,13.4207159797477,-0.118007894306335,-0.0536399519574249
0.272226000000003,13.5065399028796,-0.118007894306335,-0.0536399519574249
0.283706000000002,13.7103717203178,-0.118007894306335,-0.10727990391485
0.292701000000001,13.8927475569731,-0.118007894306335,-0.0750959327403949
0.304302,14.0858513840198,-0.118007894306335,-0.0536399519574249
0.313303000000005,14.2253152591091,-0.118007894306335,-0.0536399519574249
0.324824,14.3969631053729,-0.118007894306335,-0.0536399519574249
0.33379,14.5471549708536,-0.118007894306335,-0.02145598078297
0.345303000000001,14.66516286516,-0.118007894306335,-0.0750959327403949
0.352980000000002,14.8260827210323,-0.118007894306335,-0.0536399519574249
0.361873000000003,14.9440906153386,-0.118007894306335,-0.02145598078297
0.373190000000001,15.0942824808194,-0.118007894306335,-0.0750959327403949
0.382175000000004,15.2122903751257,-0.118007894306335,-0.0536399519574249
0.393866000000003,15.2337463559087,-0.118007894306335,-0.0536399519574249
0.402864000000001,15.351754250215,-0.118007894306335,-0.0750959327403949
0.414108000000006,15.4053942021724,-0.118007894306335,-0.0536399519574249
0.423078000000004,15.4697621445214,-0.118007894306335,-0.0536399519574249
0.434623000000002,15.5234020964788,-0.0965519135233649,-0.0536399519574249
0.443588000000005,15.5663140580447,-0.118007894306335,-0.0750959327403949
0.452277000000002,15.6843219523511,-0.15019186548079,-0.0750959327403949
0.463752000000007,15.7379619043085,-0.15019186548079,-0.10727990391485
0.471691,15.8130578370489,-0.15019186548079,-0.0750959327403949
0.482100000000003,15.8988817601807,-0.15019186548079,-0.10727990391485
0.492545,15.9525217121382,-0.15019186548079,-0.0750959327403949
0.504181000000003,16.0383456352701,-0.15019186548079,-0.10727990391485
0.515136000000005,16.0705296064445,-0.15019186548079,-0.10727990391485
0.524283000000004,16.1563535295764,-0.15019186548079,-0.0750959327403949
0.531955000000004,16.1885375007508,-0.15019186548079,-0.0750959327403949
0.542303000000004,16.2421774527083,-0.15019186548079,-0.0536399519574249
0.553065000000004,16.3387293662316,-0.15019186548079,-0.0750959327403949
0.564071000000006,16.3709133374061,-0.15019186548079,-0.0536399519574249
0.572949000000001,16.456737260538,-0.15019186548079,-0.0536399519574249
0.584405000000004,16.4889212317124,-0.15019186548079,-0.0750959327403949
0.593382000000005,16.5211052028869,-0.15019186548079,-0.0536399519574249
0.604928000000001,16.5747451548443,-0.118007894306335,-0.0536399519574249
0.610746000000006,16.6069291260188,-0.15019186548079,-0.0750959327403949
0.621919000000005,16.6283851068017,-0.15019186548079,-0.0750959327403949
0.632735000000004,16.6069291260188,-0.15019186548079,-0.0750959327403949
0.641474000000002,16.6927530491506,-0.15019186548079,-0.0750959327403949
0.654263,16.6605690779762,-0.15019186548079,-0.0536399519574249
0.663331000000007,16.6605690779762,-0.15019186548079,-0.0750959327403949
0.672068000000003,16.6927530491506,-0.15019186548079,-0.0750959327403949
0.683586000000005,16.6605690779762,-0.15019186548079,-0.0750959327403949
0.692601000000003,16.6283851068017,-0.15019186548079,-0.10727990391485
0.703996000000004,16.6927530491506,-0.15019186548079,-0.10727990391485
0.712990000000005,16.6927530491506,-0.15019186548079,-0.0536399519574249
0.722094000000006,16.7249370203251,-0.15019186548079,-0.10727990391485
0.733671000000001,16.6927530491506,-0.118007894306335,-0.0750959327403949
0.742692000000005,16.7249370203251,-0.15019186548079,-0.0750959327403949
0.751667000000005,16.7463930011081,-0.15019186548079,-0.10727990391485
0.763313000000004,16.7785769722825,-0.118007894306335,-0.10727990391485
0.773871,16.7249370203251,-0.118007894306335,-0.0750959327403949
0.779248000000003,16.7249370203251,-0.118007894306335,-0.10727990391485
0.794653000000004,16.7463930011081,-0.118007894306335,-0.0750959327403949
0.803455,16.7463930011081,-0.118007894306335,-0.0750959327403949
0.814721000000006,16.7249370203251,-0.118007894306335,-0.0536399519574249
0.823560000000001,16.7249370203251,-0.118007894306335,-0.0750959327403949
0.832616000000002,16.6927530491506,-0.118007894306335,-0.0750959327403949
0.841631,16.6927530491506,-0.118007894306335,-0.12873588469782
0.85228,16.6605690779762,-0.118007894306335,-0.10727990391485
0.861235000000001,16.6069291260188,-0.118007894306335,-0.0750959327403949
0.871896,16.5747451548443,-0.15019186548079,-0.10727990391485
0.882892000000005,16.5747451548443,-0.15019186548079,-0.10727990391485
0.891188,16.5747451548443,-0.15019186548079,-0.0750959327403949
0.904658000000005,16.5425611836699,-0.15019186548079,-0.10727990391485
0.911082,16.4889212317124,-0.15019186548079,-0.12873588469782
0.921857000000003,16.456737260538,-0.15019186548079,-0.12873588469782
0.933406000000005,16.435281279755,-0.15019186548079,-0.10727990391485
0.944561,16.4030973085805,-0.15019186548079,-0.0750959327403949
0.953546000000003,16.3709133374061,-0.15019186548079,-0.10727990391485
0.962567,16.3387293662316,-0.15019186548079,-0.12873588469782
0.970979,16.3387293662316,-0.15019186548079,-0.12873588469782
0.984331000000005,16.3387293662316,-0.15019186548079,-0.10727990391485
0.992914000000006,16.2850894142742,-0.118007894306335,-0.10727990391485
1.001592,16.2850894142742,-0.15019186548079,-0.10727990391485
1.012585,16.3172733854487,-0.15019186548079,-0.10727990391485
1.021739,16.2850894142742,-0.15019186548079,-0.10727990391485
1.03338400000001,16.2850894142742,-0.15019186548079,-0.10727990391485
1.042343,16.2850894142742,-0.15019186548079,-0.12873588469782
1.051371,16.2421774527083,-0.15019186548079,-0.10727990391485
1.062939,16.2850894142742,-0.15019186548079,-0.12873588469782
1.071958,16.2850894142742,-0.15019186548079,-0.160919855872275
1.08286,16.2850894142742,-0.15019186548079,-0.12873588469782
1.090426,16.2850894142742,-0.15019186548079,-0.10727990391485
1.103332,16.3172733854487,-0.15019186548079,-0.12873588469782
1.111383,16.3387293662316,-0.15019186548079,-0.10727990391485
1.122337,16.3172733854487,-0.15019186548079,-0.12873588469782
1.133277,16.3709133374061,-0.15019186548079,-0.10727990391485
1.141808,16.4030973085805,-0.15019186548079,-0.10727990391485
1.15336600000001,16.4030973085805,-0.15019186548079,-0.10727990391485
1.16448,16.456737260538,-0.15019186548079,-0.0750959327403949
1.17094100000001,16.435281279755,-0.15019186548079,-0.0536399519574249
1.182499,16.5211052028869,-0.15019186548079,-0.0750959327403949
1.191293,16.4889212317124,-0.15019186548079,-0.0750959327403949
1.202542,16.5425611836699,-0.15019186548079,-0.10727990391485
1.21318100000001,16.5211052028869,-0.15019186548079,-0.0750959327403949
1.221501,16.5425611836699,-0.15019186548079,-0.0750959327403949
1.233274,16.5425611836699,-0.15019186548079,-0.0750959327403949
1.24392700000001,16.6069291260188,-0.15019186548079,-0.0750959327403949
1.250332,16.5425611836699,-0.15019186548079,-0.0750959327403949
1.261578,16.6069291260188,-0.15019186548079,-0.10727990391485
1.27316800000001,16.6069291260188,-0.15019186548079,-0.10727990391485
1.283981,16.5747451548443,-0.15019186548079,-0.10727990391485
1.292748,16.5747451548443,-0.15019186548079,-0.0750959327403949
1.30123,16.6069291260188,-0.15019186548079,-0.0750959327403949
1.312742,16.6069291260188,-0.15019186548079,-0.10727990391485
1.323501,16.5747451548443,-0.15019186548079,-0.0536399519574249
1.33410900000001,16.5747451548443,-0.15019186548079,-0.10727990391485
1.340176,16.5425611836699,-0.15019186548079,-0.10727990391485
1.351312,16.5425611836699,-0.15019186548079,-0.10727990391485
1.360294,16.5211052028869,-0.15019186548079,-0.10727990391485
1.37178,16.4889212317124,-0.15019186548079,-0.10727990391485
1.380762,16.4889212317124,-0.15019186548079,-0.0750959327403949
1.392315,16.4889212317124,-0.15019186548079,-0.10727990391485
1.401245,16.4889212317124,-0.15019186548079,-0.0750959327403949
1.412786,16.435281279755,-0.15019186548079,-0.10727990391485
1.420842,16.435281279755,-0.15019186548079,-0.10727990391485
1.432287,16.435281279755,-0.15019186548079,-0.0750959327403949
1.443777,16.3709133374061,-0.182375836655245,-0.10727990391485
1.452753,16.4030973085805,-0.15019186548079,-0.10727990391485
1.464278,16.3709133374061,-0.15019186548079,-0.10727990391485
1.47077100000001,16.3709133374061,-0.15019186548079,-0.10727990391485
1.482274,16.3709133374061,-0.15019186548079,-0.10727990391485
1.490782,16.3709133374061,-0.15019186548079,-0.10727990391485
1.50186900000001,16.3709133374061,-0.118007894306335,-0.0750959327403949
1.511105,16.4030973085805,-0.118007894306335,-0.10727990391485
1.520673,16.3709133374061,-0.118007894306335,-0.10727990391485
1.532069,16.3709133374061,-0.118007894306335,-0.10727990391485
1.541096,16.435281279755,-0.118007894306335,-0.10727990391485
1.550044,16.4030973085805,-0.118007894306335,-0.10727990391485
1.563247,16.3709133374061,-0.118007894306335,-0.10727990391485
1.572234,16.4030973085805,-0.118007894306335,-0.0750959327403949
1.583891,16.456737260538,-0.118007894306335,-0.0750959327403949
1.592789,16.456737260538,-0.118007894306335,-0.0750959327403949
1.60109300000001,16.4889212317124,-0.118007894306335,-0.0750959327403949
1.611362,16.4889212317124,-0.118007894306335,-0.0536399519574249
1.622745,16.4889212317124,-0.118007894306335,-0.0750959327403949
1.63308300000001,16.5211052028869,-0.118007894306335,-0.0750959327403949
1.64211400000001,16.5211052028869,-0.118007894306335,-0.0750959327403949
1.653248,16.5425611836699,-0.15019186548079,-0.0750959327403949
1.662315,16.5425611836699,-0.118007894306335,-0.0750959327403949
1.673559,16.5425611836699,-0.118007894306335,-0.0750959327403949
1.679988,16.6069291260188,-0.118007894306335,-0.10727990391485
1.691575,16.5747451548443,-0.118007894306335,-0.10727990391485
1.700557,16.5425611836699,-0.118007894306335,-0.0750959327403949
1.711997,16.5211052028869,-0.15019186548079,-0.0750959327403949
1.720434,16.5425611836699,-0.15019186548079,-0.0750959327403949
1.731042,16.4889212317124,-0.15019186548079,-0.0750959327403949
1.742341,16.4889212317124,-0.15019186548079,-0.0750959327403949
1.753272,16.4889212317124,-0.15019186548079,-0.10727990391485
1.75965900000001,16.435281279755,-0.15019186548079,-0.10727990391485
1.77092200000001,16.435281279755,-0.15019186548079,-0.0536399519574249
1.779899,16.435281279755,-0.15019186548079,-0.10727990391485
1.793466,16.4030973085805,-0.15019186548079,-0.10727990391485
1.801939,16.3709133374061,-0.15019186548079,-0.0750959327403949
1.81291700000001,16.4030973085805,-0.118007894306335,-0.10727990391485
1.821381,16.3709133374061,-0.118007894306335,-0.10727990391485
1.832824,16.3387293662316,-0.118007894306335,-0.0750959327403949
1.841064,16.3387293662316,-0.118007894306335,-0.0750959327403949
1.852643,16.3709133374061,-0.118007894306335,-0.0750959327403949
1.860395,16.3709133374061,-0.118007894306335,-0.0750959327403949
1.870761,16.435281279755,-0.118007894306335,-0.10727990391485
1.88208700000001,16.435281279755,-0.118007894306335,-0.0750959327403949
1.891078,16.456737260538,-0.118007894306335,-0.0536399519574249
1.90007900000001,16.5211052028869,-0.118007894306335,-0.0750959327403949
1.910785,16.5425611836699,-0.118007894306335,-0.0750959327403949
1.919789,16.6283851068017,-0.15019186548079,-0.0750959327403949
1.933608,16.6605690779762,-0.15019186548079,-0.10727990391485
1.939653,16.7249370203251,-0.15019186548079,-0.0750959327403949
1.950957,16.7463930011081,-0.15019186548079,-0.0750959327403949
1.95933400000001,16.8429449146314,-0.15019186548079,-0.0750959327403949
1.972343,16.9073128569803,-0.15019186548079,-0.0750959327403949
1.98126000000001,17.0038647705037,-0.15019186548079,-0.0750959327403949
1.990217,17.12187266481,-0.15019186548079,-0.0536399519574249
2.00173,17.2935205110738,-0.15019186548079,-0.0536399519574249
2.011198,17.4115284053801,-0.15019186548079,-0.0536399519574249
2.022129,17.497352328512,-0.118007894306335,-0.0536399519574249
2.031111,17.6153602228183,-0.118007894306335,-0.0536399519574249
2.042285,17.7333681171247,-0.118007894306335,-0.0536399519574249
2.05274,17.8406480210395,-0.118007894306335,-0.02145598078297
2.05826500000001,17.9264719441714,-0.118007894306335,-0.02145598078297
2.06908300000001,17.9586559153459,-0.118007894306335,-0.02145598078297
2.079464,18.0444798384777,-0.118007894306335,-0.02145598078297
2.09304,18.0981197904352,-0.118007894306335,-0.02145598078297
2.10198500000001,18.2161276847415,-0.118007894306335,-0.02145598078297
2.10967100000001,18.248311655916,-0.118007894306335,-0.02145598078297
2.120116,18.3341355790478,-0.118007894306335,-0.02145598078297
2.13171800000001,18.3341355790478,-0.118007894306335,-0.02145598078297
2.1428,18.3341355790478,-0.0965519135233649,-0.02145598078297
2.149115,18.3341355790478,-0.118007894306335,-0.0536399519574249
2.162612,18.3663195502223,-0.0965519135233649,-0.02145598078297
2.171185,18.4199595021797,-0.118007894306335,0
2.18275000000001,18.4521434733542,-0.0965519135233649,-0.02145598078297
2.18909,18.4199595021797,-0.118007894306335,0
2.200296,18.4521434733542,-0.118007894306335,-0.02145598078297
2.209316,18.5165114157031,-0.118007894306335,-0.02145598078297
2.222658,18.5486953868775,-0.118007894306335,-0.02145598078297
2.23162000000001,18.602335338835,-0.15019186548079,-0.02145598078297
2.24013900000001,18.6667032811839,-0.15019186548079,0
2.250897,18.7203432331413,-0.15019186548079,-0.02145598078297
2.259125,18.8168951466647,-0.15019186548079,-0.02145598078297
2.270476,18.8812630890136,-0.15019186548079,0
2.282006,18.8812630890136,-0.15019186548079,0
2.290978,18.9670870121455,-0.15019186548079,0
2.302349,19.1065508872348,-0.15019186548079,-0.02145598078297
2.31026000000001,19.2352867719326,-0.15019186548079,0
2.318699,19.3854786374134,-0.15019186548079,-0.02145598078297
2.32990700000001,19.5249425125027,-0.15019186548079,-0.02145598078297
2.338872,19.6751343779835,-0.118007894306335,-0.0536399519574249
2.350099,19.7287743299409,-0.118007894306335,-0.0536399519574249
2.36072100000001,19.8360542338557,-0.118007894306335,-0.02145598078297
2.369671,19.9862460993365,-0.118007894306335,-0.0536399519574249
2.378699,20.039886051294,-0.118007894306335,-0.02145598078297
2.392613,20.1257099744258,-0.118007894306335,-0.0536399519574249
2.40159000000001,20.2437178687322,-0.118007894306335,-0.0536399519574249
2.410336,20.3617257630385,-0.0965519135233649,-0.0536399519574249
2.41856600000001,20.4475496861704,-0.118007894306335,-0.0750959327403949
2.429692,20.5333736093023,-0.118007894306335,-0.0536399519574249
2.44128000000001,20.6621094940001,-0.15019186548079,-0.0750959327403949
2.449382,20.6942934651745,-0.15019186548079,-0.0750959327403949
2.460901,20.7908453786979,-0.15019186548079,-0.0536399519574249
2.468948,20.8444853306553,-0.15019186548079,-0.0750959327403949
2.48257,20.9303092537872,-0.15019186548079,-0.0536399519574249
2.488275,20.9946771961361,-0.15019186548079,-0.0536399519574249
2.499579,21.0483171480935,-0.15019186548079,-0.0750959327403949
2.511063,21.1126850904425,-0.15019186548079,-0.0536399519574249
2.521492,21.1663250423999,-0.15019186548079,-0.0750959327403949
2.53052700000001,21.1985090135743,-0.15019186548079,-0.0750959327403949
2.542093,21.3272448982722,-0.15019186548079,-0.0536399519574249
2.551074,21.3808848502296,-0.118007894306335,-0.0536399519574249
2.562189,21.434524802187,-0.118007894306335,-0.0750959327403949
2.570706,21.4988927445359,-0.118007894306335,-0.0750959327403949
2.581973,21.5525326964933,-0.118007894306335,-0.0750959327403949
2.590055,21.5847166676678,-0.118007894306335,-0.0750959327403949
2.601481,21.7027245619741,-0.118007894306335,-0.0750959327403949
2.610038,21.767092504323,-0.118007894306335,-0.0750959327403949
2.619033,21.8314604466719,-0.118007894306335,-0.0750959327403949
2.630682,21.9280123601953,-0.118007894306335,-0.0750959327403949
2.63968300000001,22.0138362833272,-0.118007894306335,-0.0750959327403949
2.65128900000001,22.1318441776335,-0.15019186548079,-0.0750959327403949
2.66028,22.2176681007654,-0.15019186548079,-0.0536399519574249
2.671844,22.3034920238973,-0.15019186548079,-0.0536399519574249
2.680928,22.3571319758547,-0.15019186548079,-0.0536399519574249
2.689636,22.5073238413355,-0.15019186548079,-0.0750959327403949
2.700295,22.5609637932929,-0.15019186548079,-0.0750959327403949
2.709208,22.5931477644674,-0.15019186548079,-0.0750959327403949
2.720801,22.7218836491652,-0.15019186548079,-0.0536399519574249
2.729722,22.7218836491652,-0.15019186548079,-0.0536399519574249
2.741359,22.8184355626886,-0.15019186548079,-0.0750959327403949
2.750368,22.9042594858204,-0.15019186548079,-0.0750959327403949
2.76199800000001,22.9364434569949,-0.15019186548079,-0.0536399519574249
2.768387,23.0222673801268,-0.15019186548079,-0.0536399519574249
2.781953,23.1402752744331,-0.15019186548079,-0.0750959327403949
2.787994,23.1939152263905,-0.15019186548079,-0.0536399519574249
2.801378,23.2904671399139,-0.15019186548079,-0.0750959327403949
2.810363,23.3548350822628,-0.15019186548079,-0.0750959327403949
2.821203,23.3762910630458,-0.15019186548079,-0.0750959327403949
2.83016300000001,23.3548350822628,-0.15019186548079,-0.0750959327403949
2.84168200000001,23.4084750342202,-0.15019186548079,-0.0750959327403949
2.850695,23.4728429765692,-0.15019186548079,-0.0750959327403949
2.861846,23.4728429765692,-0.15019186548079,-0.0536399519574249
2.870868,23.5264829285266,-0.15019186548079,-0.0536399519574249
2.879902,23.5264829285266,-0.15019186548079,-0.0750959327403949
2.88884700000001,23.4942989573521,-0.15019186548079,-0.0750959327403949
2.899832,23.4406590053947,-0.15019186548079,-0.0750959327403949
2.910753,23.3548350822628,-0.15019186548079,-0.0750959327403949
2.91926,23.2582831687394,-0.15019186548079,-0.0750959327403949
2.928232,23.1939152263905,-0.15019186548079,-0.0750959327403949
2.939523,23.1402752744331,-0.15019186548079,-0.0750959327403949
2.948508,23.0544513513012,-0.15019186548079,-0.0750959327403949
