Time [s],Gauge Pressure [cmH2O],Inspiratory differenrtial pressure [cmH2O],Expiratory differenrtial pressure [cmH2O]
0,1.43755071245899,-0.15019186548079,-0.0750959327403949
0.021923000000001,1.78084640498651,-0.15019186548079,-0.0750959327403949
0.0270639999999958,2.09195812633957,-0.182375836655245,-0.0536399519574249
0.0281289999999998,2.41379783808412,-0.15019186548079,-0.02145598078297
0.0363120000000023,3.04674927118174,-0.118007894306335,-0.0536399519574249
0.0449339999999978,3.28276505979441,-0.15019186548079,0
0.0542650000000009,3.33640501175183,-0.118007894306335,0.0643679423489099
0.0649170000000012,3.45441290605817,-0.118007894306335,0.0858239231318799
0.0760799999999975,3.79770859858569,-0.15019186548079,0.032183971174455
0.0867080000000016,4.54866792598963,-0.15019186548079,-0.02145598078297
0.0948819999999984,4.97778754164903,-0.118007894306335,-0.10727990391485
0.105668000000001,5.33181122456804,-0.118007894306335,-0.10727990391485
0.114272,5.62146696513813,-0.15019186548079,-0.10727990391485
0.127119999999998,5.77165883061892,-0.15019186548079,-0.10727990391485
0.136088000000001,5.98621863844862,-0.118007894306335,-0.10727990391485
0.144855999999997,6.19005045588684,-0.15019186548079,-0.0750959327403949
0.153329999999997,6.39388227332505,-0.182375836655245,-0.0750959327403949
0.164315999999999,6.54407413880584,-0.15019186548079,-0.0750959327403949
0.176988999999999,6.78008992741851,-0.182375836655245,-0.0750959327403949
0.185961999999996,6.99464973524821,-0.182375836655245,-0.10727990391485
0.197355000000002,7.16629758151197,-0.15019186548079,-0.0750959327403949
0.203738999999999,7.28430547581831,-0.182375836655245,-0.10727990391485
0.214506999999998,7.4344973412991,-0.182375836655245,-0.12873588469782
0.225704999999998,7.498865283648,-0.182375836655245,-0.10727990391485
0.237246999999996,7.61687317795434,-0.182375836655245,-0.10727990391485
0.243592,7.73488107226068,-0.15019186548079,-0.0750959327403949
0.254623000000002,7.87434494734998,-0.15019186548079,-0.0750959327403949
0.265817999999996,8.06744877439671,-0.15019186548079,-0.10727990391485
0.274096999999998,8.17472867831156,-0.15019186548079,-0.10727990391485
0.285040000000002,8.27128059183493,-0.118007894306335,-0.0750959327403949
0.293382999999999,8.38928848614126,-0.15019186548079,-0.12873588469782
0.303838999999996,8.53948035162205,-0.15019186548079,-0.0750959327403949
0.316485,8.68967221710284,-0.118007894306335,-0.10727990391485
0.324565,8.77549614023472,-0.118007894306335,-0.10727990391485
0.334344999999999,8.89350403454105,-0.118007894306335,-0.0536399519574249
0.344502999999996,9.04369590002184,-0.118007894306335,-0.10727990391485
0.354210000000002,9.17243178471966,-0.118007894306335,-0.0750959327403949
0.379091000000003,9.31189565980897,-0.118007894306335,-0.0750959327403949
0.379719000000001,9.40844757333233,-0.15019186548079,-0.0750959327403949
0.388812000000001,9.54791144842164,-0.15019186548079,-0.10727990391485
0.394295,9.66591934272797,-0.118007894306335,-0.12873588469782
0.404908999999996,9.7195592946854,-0.118007894306335,-0.0750959327403949
0.412576999999999,9.80538321781728,-0.118007894306335,-0.0750959327403949
0.425001000000002,9.97703106408104,-0.118007894306335,-0.10727990391485
0.433256999999998,10.0628549872129,-0.118007894306335,-0.10727990391485
0.444496000000001,10.1486789103448,-0.118007894306335,-0.10727990391485
0.456026999999999,10.2666868046511,-0.182375836655245,-0.0750959327403949
0.464962,10.4168786701319,-0.182375836655245,-0.0536399519574249
0.476210000000002,10.5885265163957,-0.15019186548079,-0.0750959327403949
0.485956000000002,10.7601743626594,-0.15019186548079,-0.0750959327403949
0.496656999999999,10.9318222089232,-0.15019186548079,-0.0750959327403949
0.503102999999996,11.0391021128381,-0.15019186548079,-0.0750959327403949
0.514198999999998,11.1892939783188,-0.182375836655245,-0.0750959327403949
0.523099000000002,11.3609418245826,-0.15019186548079,-0.0536399519574249
0.534491000000003,11.4789497188889,-0.15019186548079,-0.0750959327403949
0.545383000000001,11.6613255555442,-0.15019186548079,-0.0750959327403949
0.553851999999999,11.811517421025,-0.15019186548079,-0.0536399519574249
0.565015000000002,11.9617092865058,-0.118007894306335,-0.0750959327403949
0.573723999999999,12.1119011519865,-0.15019186548079,-0.0750959327403949
0.583469999999998,12.165541103944,-0.118007894306335,-0.0536399519574249
0.592655999999998,12.2299090462929,-0.118007894306335,-0.0750959327403949
0.603481000000002,12.2835489982503,-0.118007894306335,-0.0750959327403949
0.616259999999997,12.4444688541226,-0.118007894306335,-0.02145598078297
0.622245999999997,12.5302927772545,-0.118007894306335,-0.0750959327403949
0.635840999999999,12.6483006715608,-0.15019186548079,-0.0750959327403949
0.646397999999998,12.6697566523438,-0.15019186548079,-0.0750959327403949
0.655360999999999,12.8628604793905,-0.118007894306335,-0.0750959327403949
0.666851000000001,12.9486844025224,-0.182375836655245,-0.0750959327403949
0.673308999999996,13.0666922968287,-0.182375836655245,-0.0536399519574249
0.684392000000003,13.1203322487861,-0.15019186548079,-0.0536399519574249
0.695448999999996,13.2168841623095,-0.182375836655245,-0.0750959327403949
0.704405999999999,13.249068133484,-0.15019186548079,-0.0536399519574249
0.715069,13.3027080854414,-0.15019186548079,-0.0536399519574249
0.725580999999998,13.3670760277903,-0.182375836655245,-0.10727990391485
0.733941000000002,13.3027080854414,-0.15019186548079,-0.0536399519574249
0.745379,13.3670760277903,-0.15019186548079,-0.0536399519574249
0.753717000000002,13.3670760277903,-0.182375836655245,-0.0750959327403949
0.765245,13.3885320085733,-0.15019186548079,-0.12873588469782
0.776383000000003,13.3885320085733,-0.118007894306335,-0.12873588469782
0.785319999999999,13.3885320085733,-0.118007894306335,-0.0750959327403949
0.794314,13.4207159797477,-0.118007894306335,-0.0750959327403949
0.802225999999997,13.4528999509222,-0.118007894306335,-0.0536399519574249
0.813172999999999,13.4743559317051,-0.15019186548079,-0.10727990391485
0.826479999999997,13.4743559317051,-0.15019186548079,-0.0750959327403949
0.835619000000001,13.5387238740541,-0.118007894306335,-0.10727990391485
0.844569,13.5709078452285,-0.118007894306335,-0.10727990391485
0.853533999999996,13.5709078452285,-0.118007894306335,-0.0536399519574249
0.865110999999999,13.5923638260115,-0.15019186548079,-0.10727990391485
0.873851000000002,13.6245477971859,-0.15019186548079,-0.10727990391485
0.885404000000001,13.6245477971859,-0.15019186548079,-0.0750959327403949
0.895963999999999,13.6567317683604,-0.15019186548079,-0.10727990391485
0.904891999999997,13.6781877491434,-0.182375836655245,-0.10727990391485
0.915438000000002,13.7103717203178,-0.15019186548079,-0.12873588469782
0.923496,13.7103717203178,-0.15019186548079,-0.0750959327403949
0.934354999999996,13.6781877491434,-0.15019186548079,-0.0750959327403949
0.945952999999996,13.6781877491434,-0.15019186548079,-0.0750959327403949
0.952401000000002,13.7425556914923,-0.15019186548079,-0.10727990391485
0.963273000000001,13.7747396626667,-0.15019186548079,-0.10727990391485
0.974432999999998,13.7961956434497,-0.15019186548079,-0.0536399519574249
0.983373999999998,13.7961956434497,-0.15019186548079,-0.0750959327403949
0.994942000000002,13.7961956434497,-0.15019186548079,-0.10727990391485
1.0036,13.8391076050156,-0.15019186548079,-0.0536399519574249
1.014547,13.8391076050156,-0.15019186548079,-0.12873588469782
1.025063,13.8927475569731,-0.15019186548079,-0.0750959327403949
1.033698,13.9249315281475,-0.15019186548079,-0.10727990391485
1.044666,13.9678434897135,-0.15019186548079,-0.0750959327403949
1.053618,14.0000274608879,-0.15019186548079,-0.0750959327403949
1.062557,14.0536674128453,-0.182375836655245,-0.0750959327403949
1.074169,14.1073073648028,-0.182375836655245,-0.0536399519574249
1.085492,14.1394913359772,-0.118007894306335,-0.10727990391485
1.094566,14.1394913359772,-0.118007894306335,-0.10727990391485
1.103708,14.1931312879346,-0.15019186548079,-0.0750959327403949
1.115008,14.311139182241,-0.15019186548079,-0.10727990391485
1.123336,14.311139182241,-0.15019186548079,-0.0536399519574249
1.134354,14.4613310477218,-0.118007894306335,-0.0750959327403949
1.14494,14.4613310477218,-0.15019186548079,-0.0750959327403949
1.15385,14.4935150188962,-0.15019186548079,-0.0750959327403949
1.165381,14.5149709996792,-0.118007894306335,-0.0750959327403949
1.173428,14.5793389420281,-0.15019186548079,-0.0750959327403949
1.182386,14.5793389420281,-0.15019186548079,-0.0750959327403949
1.193308,14.6007949228111,-0.118007894306335,-0.0750959327403949
1.202308,14.6329788939855,-0.118007894306335,-0.0750959327403949
1.213218,14.6866188459429,-0.15019186548079,-0.0750959327403949
1.22159,14.7509867882919,-0.118007894306335,-0.0750959327403949
1.231788,14.8260827210323,-0.15019186548079,-0.0750959327403949
1.243021,14.8904506633812,-0.118007894306335,-0.0750959327403949
1.253702,14.976274586513,-0.118007894306335,-0.0750959327403949
1.263042,14.976274586513,-0.118007894306335,-0.0536399519574249
1.274403,15.0084585576875,-0.118007894306335,-0.10727990391485
1.283017,15.0299145384705,-0.15019186548079,-0.0750959327403949
1.294554,15.0942824808194,-0.182375836655245,-0.10727990391485
1.306093,15.0942824808194,-0.15019186548079,-0.0750959327403949
1.312476,15.1479224327768,-0.182375836655245,-0.0750959327403949
1.323707,15.1801064039513,-0.182375836655245,-0.10727990391485
1.332673,15.2122903751257,-0.182375836655245,-0.0750959327403949
1.344148,15.2337463559087,-0.182375836655245,-0.0750959327403949
1.352329,15.2981142982576,-0.182375836655245,-0.0750959327403949
1.363722,15.2981142982576,-0.15019186548079,-0.0750959327403949
1.371962,15.3195702790406,-0.15019186548079,-0.10727990391485
1.383241,15.2981142982576,-0.182375836655245,-0.0750959327403949
1.392202,15.3195702790406,-0.118007894306335,-0.0750959327403949
1.403636,15.3195702790406,-0.15019186548079,-0.0750959327403949
1.412099,15.3839382213895,-0.15019186548079,-0.10727990391485
1.423112,15.3839382213895,-0.15019186548079,-0.0750959327403949
1.434394,15.4053942021724,-0.15019186548079,-0.0750959327403949
1.443113,15.3839382213895,-0.118007894306335,-0.0750959327403949
1.454213,15.3839382213895,-0.15019186548079,-0.0750959327403949
1.462509,15.351754250215,-0.15019186548079,-0.10727990391485
1.473193,15.3195702790406,-0.118007894306335,-0.0750959327403949
1.484612,15.351754250215,-0.118007894306335,-0.0750959327403949
1.493566,15.3195702790406,-0.118007894306335,-0.10727990391485
1.505121,15.2337463559087,-0.182375836655245,-0.0750959327403949
1.51361,15.2122903751257,-0.182375836655245,-0.0750959327403949
1.524801,15.2337463559087,-0.15019186548079,-0.0750959327403949
1.530811,15.2337463559087,-0.15019186548079,-0.0750959327403949
1.542219,15.2981142982576,-0.15019186548079,-0.10727990391485
1.555283,15.2981142982576,-0.182375836655245,-0.0750959327403949
1.561336,15.2981142982576,-0.15019186548079,-0.10727990391485
1.574729,15.2337463559087,-0.15019186548079,-0.0750959327403949
1.583996,15.2122903751257,-0.182375836655245,-0.0750959327403949
1.5945,15.1479224327768,-0.15019186548079,-0.0750959327403949
1.605351,15.1157384616023,-0.118007894306335,-0.10727990391485
1.6112,15.1157384616023,-0.118007894306335,-0.10727990391485
1.622089,15.0299145384705,-0.118007894306335,-0.10727990391485
1.633298,14.976274586513,-0.118007894306335,-0.10727990391485
1.644615,14.9119066441641,-0.118007894306335,-0.10727990391485
1.653591,14.8904506633812,-0.118007894306335,-0.10727990391485
1.664593,14.8904506633812,-0.15019186548079,-0.0750959327403949
1.673039,14.8260827210323,-0.15019186548079,-0.0750959327403949
1.684085,14.8260827210323,-0.118007894306335,-0.0750959327403949
1.692826,14.7831707594663,-0.118007894306335,-0.0750959327403949
1.701809,14.7509867882919,-0.118007894306335,-0.10727990391485
1.713463,14.6866188459429,-0.15019186548079,-0.10727990391485
1.722459,14.66516286516,-0.15019186548079,-0.0750959327403949
1.734066,14.6329788939855,-0.15019186548079,-0.10727990391485
1.740462,14.6007949228111,-0.15019186548079,-0.10727990391485
1.752024,14.5471549708536,-0.182375836655245,-0.10727990391485
1.762512,14.4935150188962,-0.182375836655245,-0.0750959327403949
1.771132,14.4935150188962,-0.182375836655245,-0.10727990391485
1.781983,14.4291470765473,-0.15019186548079,-0.0750959327403949
1.793612,14.4291470765473,-0.15019186548079,-0.0750959327403949
1.802452,14.3755071245899,-0.182375836655245,-0.10727990391485
1.813966,14.311139182241,-0.15019186548079,-0.10727990391485
1.822855,14.289683201458,-0.118007894306335,-0.0750959327403949
1.834361,14.289683201458,-0.118007894306335,-0.10727990391485
1.843317,14.1931312879346,-0.118007894306335,-0.0750959327403949
1.854385,14.1931312879346,-0.15019186548079,-0.10727990391485
1.86319,14.1394913359772,-0.15019186548079,-0.0750959327403949
1.874152,14.1394913359772,-0.118007894306335,-0.10727990391485
1.882218,14.1073073648028,-0.118007894306335,-0.0750959327403949
1.893783,14.1394913359772,-0.118007894306335,-0.10727990391485
1.902807,14.1073073648028,-0.118007894306335,-0.0750959327403949
1.911812,14.0858513840198,-0.118007894306335,-0.0750959327403949
1.922429,14.0858513840198,-0.118007894306335,-0.0536399519574249
1.933651,14.0858513840198,-0.15019186548079,-0.10727990391485
1.94248,14.0214834416709,-0.15019186548079,-0.10727990391485
1.953853,14.0000274608879,-0.118007894306335,-0.0750959327403949
1.962869,13.9249315281475,-0.15019186548079,-0.10727990391485
1.974319,13.8712915761901,-0.15019186548079,-0.10727990391485
1.983247,13.7961956434497,-0.118007894306335,-0.10727990391485
1.991536,13.7747396626667,-0.15019186548079,-0.10727990391485
2.001344,13.7425556914923,-0.15019186548079,-0.0750959327403949
2.012128,13.7425556914923,-0.15019186548079,-0.10727990391485
2.022477,13.7425556914923,-0.118007894306335,-0.10727990391485
2.031418,13.7425556914923,-0.118007894306335,-0.10727990391485
2.042976,13.6781877491434,-0.118007894306335,-0.0750959327403949
2.051284,13.7103717203178,-0.118007894306335,-0.10727990391485
2.061354,13.6567317683604,-0.15019186548079,-0.0750959327403949
2.072743,13.6781877491434,-0.118007894306335,-0.10727990391485
2.083824,13.6245477971859,-0.118007894306335,-0.0750959327403949
2.092313,13.6245477971859,-0.118007894306335,-0.10727990391485
2.103604,13.5923638260115,-0.118007894306335,-0.0750959327403949
2.114634,13.6245477971859,-0.118007894306335,-0.10727990391485
2.121025,13.6245477971859,-0.15019186548079,-0.10727990391485
2.132645,13.5923638260115,-0.15019186548079,-0.0750959327403949
2.141682,13.6245477971859,-0.15019186548079,-0.10727990391485
2.153243,13.5923638260115,-0.15019186548079,-0.0750959327403949
2.162161,13.5709078452285,-0.118007894306335,-0.0750959327403949
2.17367,13.5923638260115,-0.118007894306335,-0.10727990391485
2.182138,13.5709078452285,-0.118007894306335,-0.10727990391485
2.193029,13.5709078452285,-0.118007894306335,-0.0750959327403949
2.201767,13.5709078452285,-0.15019186548079,-0.10727990391485
2.210467,13.5709078452285,-0.118007894306335,-0.0750959327403949
2.221585,13.5387238740541,-0.15019186548079,-0.10727990391485
2.232868,13.5387238740541,-0.15019186548079,-0.0750959327403949
2.241841,13.5065399028796,-0.15019186548079,-0.0750959327403949
2.252801,13.5387238740541,-0.15019186548079,-0.10727990391485
2.261514,13.5065399028796,-0.15019186548079,-0.0750959327403949
2.27288,13.4743559317051,-0.15019186548079,-0.0750959327403949
2.281809,13.4743559317051,-0.15019186548079,-0.0750959327403949
2.293297,13.4743559317051,-0.15019186548079,-0.0750959327403949
2.301633,13.5065399028796,-0.15019186548079,-0.10727990391485
2.313394,13.5387238740541,-0.15019186548079,-0.0750959327403949
2.321798,13.5387238740541,-0.15019186548079,-0.10727990391485
2.333259,13.5387238740541,-0.15019186548079,-0.0750959327403949
2.342226,13.5387238740541,-0.118007894306335,-0.10727990391485
2.353668,13.5387238740541,-0.118007894306335,-0.0750959327403949
2.362671,13.5387238740541,-0.15019186548079,-0.10727990391485
2.371671,13.5387238740541,-0.15019186548079,-0.10727990391485
2.380619,13.5387238740541,-0.118007894306335,-0.10727990391485
2.39162,13.5065399028796,-0.15019186548079,-0.0536399519574249
2.400593,13.5065399028796,-0.118007894306335,-0.0750959327403949
2.414337,13.5387238740541,-0.15019186548079,-0.0750959327403949
2.420737,13.5709078452285,-0.118007894306335,-0.0750959327403949
2.432314,13.5923638260115,-0.15019186548079,-0.10727990391485
2.441157,13.6567317683604,-0.15019186548079,-0.0750959327403949
2.45273,13.6781877491434,-0.15019186548079,-0.10727990391485
2.461639,13.6781877491434,-0.118007894306335,-0.0750959327403949
2.470514,13.6781877491434,-0.15019186548079,-0.10727990391485
2.482036,13.6567317683604,-0.15019186548079,-0.10727990391485
2.491001,13.6245477971859,-0.118007894306335,-0.0750959327403949
2.501771,13.5923638260115,-0.15019186548079,-0.10727990391485
2.511743,13.5709078452285,-0.118007894306335,-0.10727990391485
2.522475,13.5065399028796,-0.15019186548079,-0.0750959327403949
2.531011,13.4743559317051,-0.15019186548079,-0.10727990391485
2.542153,13.4207159797477,-0.15019186548079,-0.0750959327403949
2.553419,13.3885320085733,-0.118007894306335,-0.10727990391485
2.55979,13.3670760277903,-0.118007894306335,-0.0750959327403949
2.573967,13.3670760277903,-0.118007894306335,-0.0750959327403949
2.582907,13.3885320085733,-0.118007894306335,-0.10727990391485
2.591781,13.4207159797477,-0.118007894306335,-0.0750959327403949
2.601062,13.3670760277903,-0.118007894306335,-0.10727990391485
2.610335,13.3670760277903,-0.118007894306335,-0.10727990391485
2.62264,13.3348920566158,-0.15019186548079,-0.0750959327403949
2.631105,13.3027080854414,-0.118007894306335,-0.0750959327403949
2.641595,13.3027080854414,-0.118007894306335,-0.0750959327403949
2.650577,13.3670760277903,-0.182375836655245,-0.10727990391485
2.662152,13.3670760277903,-0.15019186548079,-0.0750959327403949
2.671132,13.3670760277903,-0.182375836655245,-0.10727990391485
2.682706,13.3348920566158,-0.15019186548079,-0.0750959327403949
2.691687,13.3348920566158,-0.182375836655245,-0.0750959327403949
2.703245,13.3027080854414,-0.182375836655245,-0.10727990391485
2.709632,13.3027080854414,-0.15019186548079,-0.0750959327403949
2.72071,13.3027080854414,-0.182375836655245,-0.0750959327403949
2.733191,13.2812521046584,-0.182375836655245,-0.10727990391485
2.739183,13.2812521046584,-0.182375836655245,-0.10727990391485
2.75232,13.249068133484,-0.182375836655245,-0.0750959327403949
2.761341,13.1739722007436,-0.15019186548079,-0.10727990391485
2.770304,13.1525162199606,-0.118007894306335,-0.12873588469782
2.781859,13.1525162199606,-0.15019186548079,-0.10727990391485
2.790916,13.1525162199606,-0.15019186548079,-0.0750959327403949
2.802515,13.1203322487861,-0.15019186548079,-0.10727990391485
2.811534,13.1203322487861,-0.15019186548079,-0.0750959327403949
2.821776,13.1203322487861,-0.15019186548079,-0.10727990391485
2.832144,13.0881482776117,-0.118007894306335,-0.10727990391485
2.840863,13.0666922968287,-0.118007894306335,-0.0750959327403949
2.852264,13.0345083256543,-0.118007894306335,-0.10727990391485
2.861242,13.0345083256543,-0.15019186548079,-0.0750959327403949
2.872518,13.0345083256543,-0.182375836655245,-0.0750959327403949
2.881303,13.0666922968287,-0.15019186548079,-0.10727990391485
2.892866,13.0345083256543,-0.182375836655245,-0.10727990391485
2.901831,13.0345083256543,-0.182375836655245,-0.0750959327403949
2.912899,13.0345083256543,-0.182375836655245,-0.0750959327403949
2.921851,13.0666922968287,-0.15019186548079,-0.10727990391485
2.930363,13.0881482776117,-0.182375836655245,-0.10727990391485
2.941283,13.0345083256543,-0.182375836655245,-0.0536399519574249
2.952598,13.0666922968287,-0.182375836655245,-0.10727990391485
2.96126,13.0666922968287,-0.15019186548079,-0.10727990391485
2.970113,13.0881482776117,-0.15019186548079,-0.10727990391485
2.981297,13.0666922968287,-0.15019186548079,-0.12873588469782
