Time [s],Gauge Pressure,Inspiratory differenrtial pressure,Expiratory differenrtial pressure
0,9693,8178,8182
0.00314699999999846,9615,8175,8180
0.023066,9532,8175,8180
0.0248770000000036,9432,8175,8180
0.0310290000000037,9340,8175,8182
0.0323570000000046,9246,8175,8180
0.0433459999999997,9152,8175,8182
0.055104,9052,8175,8180
0.0642800000000037,8963,8175,8180
0.0731540000000024,8885,8175,8180
0.0845660000000024,8827,8178,8180
0.0934889999999982,8772,8181,8182
0.102121000000004,8733,8183,8180
0.114898000000004,8694,8191,8180
0.122793999999999,8661,8196,8180
0.147818000000001,8624,8201,8180
0.148229000000001,8608,8204,8180
0.182352000000002,8562,8212,8177
0.183554999999998,8538,8217,8180
0.184120999999998,8509,8224,8185
0.184429999999999,8479,8232,8180
0.195155,8458,8242,8174
0.203777000000002,8423,8250,8182
0.214779,8414,8252,8185
0.225321000000001,8406,8260,8185
0.231701999999999,8396,8268,8182
0.241858000000001,8379,8270,8177
0.255768000000003,8390,8270,8180
0.264744,8382,8278,8182
0.273637000000001,8356,8283,8177
0.282601,8339,8283,8180
0.293879000000004,8350,8286,8187
0.302787000000002,8361,8286,8180
0.316019000000004,8387,8286,8174
0.322372999999999,8390,8288,8180
0.333407000000001,8358,8291,8180
0.342312,8372,8291,8177
0.355659000000003,8339,8296,8180
0.362034000000001,8345,8294,8185
0.373533000000002,8358,8294,8185
0.382463000000001,8353,8301,8182
0.394009000000004,8406,8288,8182
0.402925000000003,8361,8296,8185
0.414160000000003,8353,8294,8187
0.422325999999998,8387,8299,8185
0.433613999999999,8372,8304,8180
0.444768000000003,8404,8301,8177
0.453735000000002,8364,8291,8180
0.462568000000005,8382,8301,8180
0.473703,8414,8296,8182
0.485264000000001,8393,8299,8185
0.491373000000003,8417,8291,8185
0.504472,8404,8286,8190
0.515245,8412,8291,8177
0.521612000000005,8420,8283,8177
0.533120000000004,8428,8286,8182
0.541941999999999,8423,8283,8180
0.55274,8404,8278,8174
0.563517000000004,8409,8286,8185
0.571747999999999,8458,8283,8180
0.580373999999999,8423,8286,8180
0.594512999999999,8417,8286,8187
0.605249000000001,8436,8283,8177
0.611605000000004,8428,8281,8177
0.622551000000001,8471,8276,8185
0.634028999999998,8458,8286,8182
0.644593,8442,8276,8177
0.653348999999999,8455,8276,8177
0.664206999999998,8471,8281,8177
0.673172000000001,8481,8273,8169
0.682143000000003,8479,8265,8182
0.693701000000004,8481,8263,8182
0.702666999999998,8506,8265,8180
0.711629000000002,8522,8265,8177
0.723174,8519,8252,8185
0.732126999999998,8533,8252,8182
0.743676000000001,8549,8250,8185
0.752023999999999,8578,8252,8182
0.763001000000003,8584,8242,8180
0.774441000000003,8594,8239,8185
0.780801000000004,8608,8239,8180
0.794401999999998,8647,8230,8187
0.803398999999999,8647,8227,8180
0.814708000000003,8680,8224,8182
0.823534000000002,8691,8227,8182
0.832495999999999,8705,8219,8185
0.841438000000004,8733,8219,8180
0.852960000000003,8758,8212,8180
0.863253,8791,8209,8182
0.871824000000004,8830,8204,8180
0.882882000000002,8866,8199,8182
0.891441,8907,8193,8180
0.902393000000004,8952,8188,8180
0.913564999999998,8988,8183,8182
0.922539,9030,8178,8182
0.934063999999999,9077,8173,8180
0.944572999999998,9122,8170,8182
0.953538000000002,9200,8173,8195
0.962009000000002,9267,8175,8187
0.972562000000003,9354,8181,8192
0.983204999999998,9446,8175,8200
0.992145000000001,9548,8175,8203
1.001103,9626,8175,8208
1.011696,9715,8175,8213
1.023213,9785,8175,8216
1.034725,9845,8178,8221
1.041109,9901,8178,8216
1.051665,9949,8178,8218
1.063848,9988,8178,8221
1.072286,10031,8178,8216
1.08323,10052,8178,8226
1.093764,10074,8178,8223
1.103018,10095,8178,8223
1.114567,10118,8178,8223
1.123495,10138,8178,8221
1.132409,10154,8178,8228
1.141355,10165,8178,8223
1.152892,10182,8178,8228
1.161831,10199,8178,8228
1.172656,10238,8178,8223
1.181445,10276,8178,8221
1.192037,10314,8178,8218
1.202664,10357,8178,8213
1.210227,10380,8178,8210
1.22052,10416,8178,8205
1.233871,10441,8178,8203
1.242717,10455,8181,8198
1.251182,10479,8181,8195
1.262234,10496,8181,8190
1.270919,10514,8181,8192
1.282386,10524,8181,8192
1.29305,10535,8181,8187
1.302027,10547,8181,8190
1.313,10552,8181,8187
1.320964,10566,8181,8187
1.331673,10571,8181,8190
1.339518,10580,8181,8190
1.350825,10585,8178,8187
1.361562,10594,8178,8185
1.370548,10594,8175,8187
1.381761,10594,8178,8185
1.389538,10594,8178,8185
1.402815,10597,8178,8185
1.413676,10603,8178,8185
1.420034,10606,8178,8185
1.431173,10609,8178,8185
1.44268,10611,8178,8182
1.454007,10614,8181,8185
1.460379,10617,8181,8185
1.471909,10614,8181,8187
1.480843,10614,8181,8185
1.492205,10614,8181,8185
1.502136,10611,8181,8185
1.51309,10617,8181,8185
1.522096,10617,8181,8185
1.533198,10617,8181,8185
1.541336,10614,8181,8185
1.550277,10611,8181,8182
1.562622,10611,8175,8185
1.571162,10611,8178,8185
1.58288,10606,8178,8185
1.591898,10603,8178,8182
1.600592,10594,8178,8185
1.611923,10591,8178,8182
1.620901,10582,8178,8180
1.632442,10577,8178,8182
1.641417,10571,8178,8185
1.652284,10561,8178,8185
1.660769,10550,8175,8185
1.672302,10541,8175,8182
1.68124,10532,8175,8182
1.692696,10516,8175,8182
1.701641,10503,8175,8182
1.712712,10490,8175,8185
1.721351,10482,8175,8182
1.730259,10476,8175,8182
1.741471,10468,8175,8185
1.74964,10463,8175,8182
1.761081,10463,8175,8182
1.772521,10457,8181,8185
1.781542,10457,8181,8185
1.793069,10455,8181,8185
1.799408,10457,8181,8185
1.810256,10452,8181,8185
1.820713,10452,8181,8182
1.832062,10447,8181,8182
1.843803,10447,8181,8185
1.849806,10444,8178,8185
1.861205,10438,8181,8185
1.870167,10428,8181,8182
1.88174,10419,8181,8185
1.890752,10408,8178,8185
1.902326,10401,8181,8185
1.911264,10393,8181,8185
1.922571,10388,8178,8182
1.931351,10380,8181,8185
1.942744,10377,8181,8180
1.949136,10374,8181,8182
1.960516,10369,8181,8182
1.972046,10363,8181,8185
1.980983,10357,8178,8182
1.989926,10351,8178,8185
2.001507,10349,8178,8180
2.010451,10346,8178,8185
2.021467,10341,8178,8185
2.032437,10335,8178,8185
2.040316,10333,8178,8185
2.050897,10330,8178,8182
2.059425,10327,8178,8182
2.072691,10324,8178,8182
2.078709,10316,8178,8185
2.092816,10314,8175,8185
2.099166,10307,8178,8182
2.110694,10303,8178,8180
2.121689,10301,8178,8182
2.12987,10298,8175,8185
2.141731,10295,8178,8182
2.150588,10295,8175,8185
2.160781,10293,8178,8185
2.170988,10287,8178,8182
2.181269,10285,8178,8185
2.191505,10282,8175,8182
2.199747,10276,8175,8180
2.21129,10274,8175,8182
2.222833,10271,8175,8185
2.231801,10266,8173,8185
2.240526,10260,8175,8185
2.248629,10260,8175,8182
2.259126,10255,8175,8185
2.273094,10249,8175,8185
2.279597,10247,8175,8185
2.290634,10247,8178,8185
2.299603,10238,8178,8182
2.311134,10233,8178,8185
2.320093,10227,8178,8180
2.33168,10227,8178,8182
2.34233,10221,8178,8182
2.350555,10215,8178,8185
2.358259,10212,8178,8182
2.368893,10212,8178,8182
2.381679,10207,8178,8185
2.390326,10207,8178,8185
2.401569,10199,8181,8185
2.409745,10193,8181,8185
2.41845,10190,8181,8182
2.430016,10185,8181,8185
2.441557,10182,8181,8182
2.447768,10177,8181,8185
2.45859,10170,8181,8185
2.469399,10168,8181,8185
2.480875,10162,8181,8185
2.48903,10160,8181,8185
2.500383,10154,8178,8182
2.51135,10149,8178,8182
2.522414,10143,8178,8182
2.528777,10138,8178,8182
2.540115,10133,8178,8185
2.548547,10130,8178,8182
2.559645,10123,8178,8185
2.570617,10118,8178,8185
2.579366,10115,8178,8182
2.590373,10109,8178,8182
2.601939,10101,8178,8182
2.610879,10098,8178,8182
2.619867,10095,8178,8185
2.628838,10087,8178,8182
2.640033,10082,8178,8185
2.648979,10079,8175,8177
2.660284,10074,8178,8182
2.668931,10066,8178,8182
2.679828,10063,8178,8182
2.688353,10055,8178,8177
2.699887,10052,8178,8185
2.710756,10047,8181,8185
2.718894,10044,8181,8185
2.730408,10041,8181,8182
2.738992,10041,8181,8182
2.747677,10039,8181,8182
2.761206,10035,8181,8182
2.769075,10026,8181,8185
2.779548,10020,8181,8185
2.788149,10023,8181,8180
2.799331,10020,8181,8185
2.810396,10018,8181,8182
2.819317,10015,8178,8182
2.830855,10012,8178,8185
2.839789,10012,8178,8182
2.850902,10009,8178,8182
2.861165,10009,8181,8180
2.869565,10004,8178,8185
2.881065,10004,8178,8182
2.888996,10004,8178,8182
2.90027,9999,8178,8182
2.911656,9993,8178,8182
2.918066,9990,8178,8185
2.929597,9985,8178,8182
2.938595,9982,8178,8185
2.950126,9977,8178,8185
2.959078,9977,8178,8185
2.970675,9973,8178,8180
2.979583,9973,8178,8180
2.990225,9968,8178,8182
3.000925,9965,8178,8182
3.009559,9962,8178,8185
3.019379,9957,8178,8182
3.028589,9954,8175,8185
3.038496,9946,8173,8182
3.049708,9940,8175,8180
3.061172,9932,8175,8185
3.070178,9923,8175,8182
3.080312,9918,8175,8182
3.08598,9906,8175,8182
3.099391,9895,8175,8182
3.110927,9890,8175,8182
3.121275,9882,8175,8180
3.126625,9874,8178,8185
3.136897,9866,8178,8185
3.147811,9863,8178,8182
3.158899,9858,8178,8185
3.169802,9858,8178,8182
3.178308,9852,8178,8180
3.189169,9845,8178,8182
3.19679,9845,8178,8182
3.208066,9845,8178,8182
3.219693,9842,8178,8182
3.227774,9839,8178,8182
3.239286,9834,8178,8185
3.250748,9828,8178,8187
3.256727,9828,8178,8180
3.27088,9818,8178,8182
3.27725,9812,8178,8182
3.2911,9801,8178,8182
3.297171,9793,8178,8180
3.30802,9785,8178,8180
3.319223,9780,8178,8180
3.327993,9768,8178,8180
3.33959,9756,8178,8182
3.347756,9745,8178,8182
3.359314,9726,8178,8180
3.370863,9679,8178,8182
3.379819,9646,8178,8180
3.3887,9615,8178,8182
3.397588,9574,8178,8180
3.410695,9529,8178,8182
3.419643,9487,8178,8180
3.428599,9448,8178,8182
3.437484,9399,8178,8182
3.448143,9352,8178,8180
3.458804,9302,8175,8180
3.467563,9257,8178,8180
3.478607,9213,8178,8182
3.48748,9165,8178,8180
3.500809,9122,8178,8182
3.506817,9069,8178,8180
3.517685,9027,8178,8180
3.530613,8980,8178,8180
3.53984,8936,8178,8180
3.54801,8897,8178,8180
3.557009,8866,8178,8180
3.56825,8832,8178,8180
3.577192,8811,8181,8180
3.58771,8785,8183,8180
3.598739,8772,8183,8180
3.607512,8750,8186,8180
3.618353,8733,8188,8182
3.629517,8721,8191,8180
3.638378,8713,8193,8180
3.64957,8713,8196,8182
3.658508,8699,8199,8180
3.670041,8702,8201,8180
3.679121,8689,8201,8180
3.688084,8689,8204,8180
3.699028,8686,8204,8182
3.707949,8686,8206,8182
3.718501,8678,8206,8180
3.726803,8683,8209,8177
3.737824,8672,8209,8182
3.749183,8675,8212,8177
3.76052,8670,8206,8180
3.766904,8659,8209,8180
3.778481,8653,8209,8180
3.787526,8661,8209,8182
3.799043,8656,8212,8185
3.807965,8656,8214,8177
3.819115,8661,8214,8180
3.82682,8639,8214,8182
3.837664,8642,8214,8182
3.848855,8632,8214,8177
3.8571,8630,8219,8177
3.868629,8639,8222,8180
3.880168,8622,8219,8180
3.888765,8624,8224,8180
3.897732,8616,8224,8180
3.906701,8608,8224,8177
3.918317,8586,8224,8180
3.926974,8594,8227,8180
3.9373,8592,8224,8182
3.945833,8586,8227,8185
3.957066,8592,8232,8174
3.968612,8592,8227,8177
3.977056,8594,8227,8180
3.988595,8589,8227,8185
3.99692,8597,8227,8185
4.007795,8578,8230,8187
4.018227,8581,8230,8180
4.026398,8584,8230,8180
4.036575,8589,8232,8177
4.047347,8578,8232,8177
4.058414,8608,8230,8182
4.06754,8592,8232,8180
4.078433,8608,8232,8177
4.087201,8594,8227,8177
4.097784,8603,8230,8177
4.106772,8600,8230,8180
4.118268,8613,8230,8177
4.127186,8613,8230,8182
4.137297,8613,8227,8180
4.148459,8622,8227,8182
4.159114,8613,8227,8177
4.168052,8622,8224,8180
4.179228,8616,8227,8180
4.188137,8622,8224,8177
4.19683,8635,8224,8182
4.208221,8624,8222,8180
4.219271,8639,8224,8177
4.227699,8632,8222,8182
4.236107,8647,8224,8180
4.246986,8650,8222,8182
4.257801,8675,8219,8182
4.268852,8667,8219,8182
4.277794,8694,8219,8180
4.289254,8702,8219,8180
4.298204,8697,8219,8180
4.30944,8694,8217,8180
4.318376,8699,8217,8180
4.327328,8716,8217,8177
4.338174,8725,8214,8177
4.347059,8718,8209,8182
4.358601,8716,8212,8180
4.367691,8707,8214,8182
4.378445,8705,8212,8182
4.386892,8716,8212,8182
4.398404,8716,8212,8182
4.404885,8730,8209,8182
4.418994,8741,8209,8182
4.427821,8758,8206,8185
4.43936,8772,8206,8180
4.445766,8783,8201,8185
4.456774,8804,8201,8180
4.465555,8827,8199,8185
4.476504,8855,8196,8185
4.487618,8882,8191,8185
4.496345,8916,8186,8182
4.505281,8954,8183,8187
4.516335,8996,8181,8185
4.527037,9043,8181,8187
4.535958,9085,8175,8187
4.547065,9154,8178,8187
4.555291,9243,8181,8190
4.566322,9321,8181,8195
4.576978,9387,8183,8200
4.58576,9467,8181,8205
4.596322,9545,8175,8205
4.604125,9612,8175,8208
4.615108,9662,8175,8208
4.626658,9721,8173,8208
4.638161,9756,8175,8205
4.647147,9796,8175,8203
4.658664,9812,8175,8205
4.666645,9831,8173,8200
4.675303,9845,8175,8200
4.688493,9863,8175,8203
4.696559,9879,8178,8200
4.707693,9893,8178,8203
4.717888,9906,8178,8200
4.726818,9912,8178,8198
4.738241,9918,8178,8200
4.747177,9926,8175,8195
4.758214,9929,8178,8195
4.768191,9932,8178,8195
4.776934,9932,8178,8200
4.787585,9934,8178,8195
4.79633,9940,8178,8198
4.807578,9946,8178,8195
4.818381,9952,8178,8198
4.827321,9952,8178,8198
4.835881,9949,8178,8198
4.84482,9952,8178,8192
4.85871,9946,8178,8195
4.867423,9952,8178,8192
4.875622,9952,8178,8190
4.88628,9957,8178,8192
4.896599,9968,8178,8190
4.905193,9985,8178,8192
4.916425,9993,8178,8192
4.924956,10007,8178,8190
4.935309,10009,8178,8187
4.945783,10018,8175,8187
4.954323,10020,8178,8187
4.9658,10026,8178,8185
4.977452,10031,8178,8185
4.985757,10035,8178,8185
4.996249,10041,8178,8185
5.005759,10044,8178,8185
5.015394,10047,8178,8185
5.025525,10052,8178,8185
5.035428,10052,8178,8185
5.046808,10052,8178,8185
5.055506,10052,8178,8185
5.066527,10052,8178,8187
5.075651,10057,8175,8182
5.084372,10055,8178,8187
5.095336,10052,8178,8185
5.106641,10052,8178,8182
5.115554,10049,8175,8182
5.127028,10047,8175,8180
5.136033,10044,8175,8185
5.147384,10041,8175,8180
5.155676,10041,8175,8182
5.166833,10035,8173,8182
5.174864,10035,8175,8182
5.186231,10028,8175,8185
5.19519,10028,8175,8185
5.206664,10023,8175,8182
5.215388,10020,8175,8182
5.226898,10015,8178,8185
5.238219,10018,8178,8180
5.247181,10012,8178,8182
5.256192,10009,8178,8182
5.265237,10009,8178,8182
5.273872,10007,8178,8182
5.287872,10007,8178,8182
5.296267,10004,8178,8185
5.304744,10004,8178,8182
5.316268,9999,8178,8180
5.32521,10001,8175,8182
5.336747,9999,8175,8182
5.345723,9996,8175,8182
5.354319,9988,8173,8182
5.367279,9985,8175,8185
5.375544,9980,8175,8182
5.384481,9977,8175,8185
5.395886,9977,8175,8185
5.404372,9973,8173,8180
5.415401,9971,8175,8185
5.426917,9973,8178,8182
5.435853,9971,8178,8185
5.44741,9968,8178,8182
5.453797,9971,8178,8182
5.467475,9968,8178,8182
5.475953,9965,8178,8185
5.484863,9962,8178,8182
5.49638,9962,8178,8182
5.505229,9965,8178,8180
5.516426,9968,8178,8182
5.524595,9968,8178,8182
5.536109,9968,8178,8185
5.5452,9968,8178,8182
5.554107,9968,8178,8182
5.565398,9965,8178,8185
5.573313,9965,8178,8185
5.583267,9962,8178,8185
5.597349,9960,8178,8182
5.603722,9957,8178,8185
5.614847,9954,8178,8185
5.62608,9949,8178,8182
5.63745,9943,8178,8182
5.643808,9946,8178,8182
5.654301,9940,8178,8185
5.664939,9940,8178,8182
5.676141,9937,8178,8182
5.685125,9934,8178,8182
5.694063,9932,8178,8182
5.705535,9929,8178,8182
5.714479,9929,8178,8180
5.725888,9926,8178,8182
5.733947,9923,8178,8185
5.746815,9921,8178,8182
5.75578,9921,8178,8182
5.766982,9921,8178,8185
5.773291,9915,8178,8185
5.787329,9915,8178,8185
5.796286,9912,8175,8182
5.807495,9909,8178,8185
5.813892,9906,8178,8182
5.825284,9901,8178,8182
5.834241,9901,8178,8182
5.844698,9895,8178,8182
5.853631,9893,8178,8185
5.864294,9893,8178,8182
5.875472,9887,8178,8182
5.887001,9885,8178,8185
5.893366,9882,8178,8180
5.90406,9882,8178,8180
5.915352,9876,8178,8180
5.923534,9871,8178,8185
5.935155,9871,8178,8182
5.944123,9868,8178,8182
5.95308,9863,8181,8182
5.967053,9863,8181,8180
5.975526,9860,8181,8182
5.983847,9855,8181,8182
5.995342,9858,8181,8182
6.004265,9852,8181,8180
6.015205,9847,8181,8182
6.023891,9847,8181,8182
6.035406,9847,8181,8180
6.046584,9842,8181,8180
6.055525,9842,8181,8180
6.066989,9842,8181,8177
6.073334,9839,8181,8182
6.084122,9831,8181,8180
6.092181,9834,8181,8182
6.10628,9826,8181,8182
6.114651,9826,8181,8182
6.123286,9823,8181,8182
6.134348,9818,8181,8182
6.147078,9815,8181,8182
6.153453,9815,8181,8180
6.164102,9809,8175,8182
6.173032,9809,8175,8182
6.184245,9804,8175,8182
6.194836,9799,8175,8182
6.203017,9796,8175,8185
6.213767,9793,8175,8182
6.225137,9793,8175,8180
6.23408,9791,8175,8185
6.245333,9793,8175,8182
6.253505,9799,8175,8182
6.265032,9799,8178,8180
6.276074,9799,8178,8185
6.282432,9799,8178,8182
6.296211,9799,8178,8182
6.305148,9796,8178,8182
6.314089,9796,8178,8182
6.323027,9793,8178,8182
6.334543,9791,8175,8180
6.34348,9788,8178,8182
6.354993,9785,8178,8185
6.363928,9780,8175,8180
6.375442,9780,8178,8180
6.384367,9777,8178,8182
6.395891,9771,8178,8182
6.40408,9768,8178,8182
6.413019,9765,8178,8180
6.424649,9762,8178,8180
6.433642,9760,8178,8182
6.445127,9756,8178,8182
6.454063,9756,8178,8182
6.465302,9751,8178,8180
6.475911,9751,8178,8180
6.484846,9748,8178,8180
6.493292,9742,8178,8180
6.502337,9742,8178,8177
6.515801,9737,8178,8180
6.524743,9734,8175,8182
6.533236,9732,8178,8180
6.542176,9726,8178,8180
6.555938,9724,8178,8182
6.564877,9718,8178,8182
6.576212,9713,8178,8180
6.584425,9710,8178,8180
6.593009,9704,8178,8182
6.60407,9695,8178,8180
6.614776,9693,8178,8180
6.625504,9690,8178,8180
6.634431,9685,8178,8180
6.645436,9682,8178,8180
6.653923,9677,8178,8177
6.662921,9671,8178,8180
6.674328,9668,8178,8180
6.683263,9666,8178,8182
6.694796,9662,8178,8185
6.70376,9659,8178,8180
6.71271,9659,8178,8180
6.723479,9654,8178,8180
6.734519,9651,8175,8182
6.74295,9646,8178,8185
6.754449,9639,8178,8177
6.765498,9631,8178,8180
6.774437,9626,8178,8182
6.785991,9620,8178,8182
6.792349,9607,8175,8185
6.803911,9601,8178,8182
6.815125,9596,8178,8180
6.823588,9596,8178,8180
6.835125,9588,8178,8180
6.841268,9577,8178,8182
6.855395,9570,8178,8182
6.86436,9561,8178,8180
6.87579,9548,8178,8180
6.882187,9540,8178,8180
6.893254,9526,8175,8182
6.902268,9513,8175,8182
6.913344,9499,8175,8180
6.92233,9470,8175,8182
6.933901,9407,8175,8182
6.942505,9348,8173,8182
6.954024,9293,8175,8180
6.962154,9243,8175,8180
6.973253,9192,8175,8180
6.984798,9154,8175,8182
6.993487,9122,8175,8182
7.00427,9093,8178,8182
7.013233,9050,8178,8180
7.024661,9002,8175,8180
7.033608,8957,8178,8182
7.045084,8913,8178,8180
7.051481,8885,8178,8182
7.064751,8860,8178,8182
7.072861,8832,8178,8182
7.084602,8804,8181,8182
7.093599,8780,8183,8180
7.104836,8756,8186,8180
7.113806,8733,8191,8180
7.1255,8710,8191,8182
7.131911,8694,8193,8180
7.143448,8686,8199,8182
7.152422,8683,8199,8180
7.164,8686,8204,8182
7.172937,8670,8204,8180
7.184496,8675,8206,8180
7.193435,8667,8209,8177
7.204971,8661,8209,8182
7.213911,8659,8212,8180
7.22288,8656,8214,8180
7.231815,8653,8214,8182
7.243356,8635,8214,8185
7.252296,8642,8217,8180
7.263827,8635,8219,8177
7.274374,8639,8219,8180
7.28331,8624,8219,8182
7.294313,8630,8222,8180
7.302988,8619,8222,8177
7.311993,8622,8222,8180
7.323238,8624,8219,8177
7.332171,8622,8219,8180
7.343742,8611,8222,8177
7.352692,8632,8222,8180
7.363682,8622,8222,8180
7.372296,8624,8222,8182
7.383863,8622,8222,8182
7.394391,8611,8224,8182
7.403389,8619,8222,8182
7.414845,8624,8224,8180
7.423443,8619,8222,8180
7.431951,8613,8224,8182
7.440891,8639,8224,8180
7.454799,8632,8224,8180
7.463738,8644,8224,8182
7.472575,8639,8224,8182
7.481523,8656,8222,8180
7.492821,8635,8224,8180
7.501772,8653,8224,8177
7.513351,8644,8222,8180
7.521688,8659,8219,8180
7.532076,8650,8219,8180
7.543627,8659,8217,8182
7.552547,8659,8217,8182
7.564162,8653,8219,8182
7.573091,8667,8217,8180
7.584901,8678,8219,8182
7.593892,8689,8214,8182
7.602174,8683,8214,8180
7.611115,8689,8214,8185
7.622327,8689,8212,8182
7.631236,8691,8214,8182
7.642485,8702,8214,8182
7.651406,8699,8212,8182
7.662929,8707,8212,8185
7.670712,8710,8212,8182
7.681916,8718,8209,8182
7.693407,8725,8209,8180
7.702346,8747,8206,8185
7.713873,8753,8206,8185
7.722814,8764,8204,8182
7.73123,8780,8201,8180
7.742471,8791,8193,8185
7.753992,8808,8193,8182
7.762983,8839,8191,8182
7.771424,8860,8191,8185
7.782511,8889,8186,8182
7.791504,8921,8181,8182
7.803035,8952,8181,8182
7.811994,8985,8175,8187
7.823329,9021,8175,8185
7.832269,9063,8178,8185
7.843815,9106,8178,8185
7.852759,9211,8183,8200
7.861306,9276,8183,8198
7.872324,9348,8175,8198
