Time [s],Gauge Pressure [cmH2O],Inspiratory differenrtial pressure [cmH2O],Expiratory differenrtial pressure [cmH2O]
0,24.5670979965006,-0.118007894306335,-0.12873588469782
0.00316699999999948,24.5349140253262,-0.15019186548079,-0.12873588469782
0.0225359999999997,24.4812740733687,-0.118007894306335,-0.12873588469782
0.0243779999999996,24.3954501502369,-0.118007894306335,-0.10727990391485
0.0298439999999998,24.4169061310198,-0.118007894306335,-0.10727990391485
0.0356909999999999,24.3632661790624,-0.118007894306335,-0.10727990391485
0.0472009999999994,24.3310822078879,-0.118007894306335,-0.0750959327403949
0.0587209999999994,24.2452582847561,-0.15019186548079,-0.0750959327403949
0.0650869999999992,24.2130743135816,-0.118007894306335,-0.0750959327403949
0.0787709999999997,24.1594343616242,-0.15019186548079,-0.0750959327403949
0.0872859999999998,24.1272503904497,-0.118007894306335,-0.0750959327403949
0.098484,24.0736104384923,-0.15019186548079,-0.0750959327403949
0.104558,24.0092424961434,-0.118007894306335,-0.0750959327403949
0.118732,23.9234185730115,-0.15019186548079,-0.10727990391485
0.126855999999999,23.8268666594882,-0.118007894306335,-0.0750959327403949
0.138186999999999,23.7410427363563,-0.118007894306335,-0.10727990391485
0.147208,23.6444908228329,-0.118007894306335,-0.12873588469782
0.158688,23.558666899701,-0.118007894306335,-0.12873588469782
0.16431,23.4728429765692,-0.118007894306335,-0.160919855872275
0.191646,23.3762910630458,-0.118007894306335,-0.12873588469782
0.192035,23.2904671399139,-0.118007894306335,-0.12873588469782
0.216837,23.2582831687394,-0.15019186548079,-0.12873588469782
0.218057,23.226099197565,-0.15019186548079,-0.12873588469782
0.218328,23.1402752744331,-0.118007894306335,-0.10727990391485
0.229278,23.0759073320842,-0.15019186548079,-0.12873588469782
0.237208,23.0222673801268,-0.15019186548079,-0.10727990391485
0.245855,22.9900834089523,-0.118007894306335,-0.12873588469782
0.257454,22.9042594858204,-0.182375836655245,-0.10727990391485
0.26634,22.850619533863,-0.15019186548079,-0.0750959327403949
0.275308,22.7647956107311,-0.15019186548079,-0.10727990391485
0.286389,22.7218836491652,-0.15019186548079,-0.10727990391485
0.297154,22.6253317356418,-0.15019186548079,-0.0750959327403949
0.305699,22.5931477644674,-0.15019186548079,-0.10727990391485
0.316522999999999,22.5609637932929,-0.0965519135233649,-0.0750959327403949
0.327357999999999,22.475139870161,-0.118007894306335,-0.0750959327403949
0.335608,22.4536838893781,-0.0965519135233649,-0.10727990391485
0.346835,22.4536838893781,-0.0965519135233649,-0.0750959327403949
0.357862,22.4214999182036,-0.0965519135233649,-0.10727990391485
0.363937,22.4214999182036,-0.118007894306335,-0.10727990391485
0.375451,22.3893159470292,-0.118007894306335,-0.0750959327403949
0.386987,22.3356759950717,-0.0965519135233649,-0.10727990391485
0.398543999999999,22.3034920238973,-0.0965519135233649,-0.0750959327403949
0.404932,22.3034920238973,-0.0965519135233649,-0.0750959327403949
0.415497999999999,22.2498520719399,-0.118007894306335,-0.0750959327403949
0.426101,22.2498520719399,-0.15019186548079,-0.0750959327403949
0.43709,22.2176681007654,-0.118007894306335,-0.10727990391485
0.446092999999999,22.2176681007654,-0.118007894306335,-0.12873588469782
0.4573,22.2176681007654,-0.118007894306335,-0.0750959327403949
0.465457,22.185484129591,-0.15019186548079,-0.0750959327403949
0.477017999999999,22.2176681007654,-0.118007894306335,-0.0750959327403949
0.488531,22.185484129591,-0.118007894306335,-0.0750959327403949
0.495152,22.2176681007654,-0.15019186548079,-0.10727990391485
0.506615,22.2176681007654,-0.118007894306335,-0.0750959327403949
0.515508,22.2176681007654,-0.118007894306335,-0.0750959327403949
0.525821,22.185484129591,-0.118007894306335,-0.0750959327403949
0.536430999999999,22.185484129591,-0.15019186548079,-0.10727990391485
0.544779999999999,22.1533001584165,-0.15019186548079,-0.12873588469782
0.557494999999999,22.1533001584165,-0.15019186548079,-0.0750959327403949
0.566184,22.1533001584165,-0.15019186548079,-0.10727990391485
0.575143,22.1533001584165,-0.118007894306335,-0.0750959327403949
0.588038,22.185484129591,-0.118007894306335,-0.10727990391485
0.596997999999999,22.2176681007654,-0.118007894306335,-0.0750959327403949
0.608536999999999,22.2713080527228,-0.118007894306335,-0.10727990391485
0.614833999999999,22.2713080527228,-0.118007894306335,-0.0750959327403949
0.625972999999999,22.2713080527228,-0.118007894306335,-0.0750959327403949
0.634662,22.2713080527228,-0.15019186548079,-0.0750959327403949
0.647835,22.2713080527228,-0.118007894306335,-0.0750959327403949
0.656343,22.3034920238973,-0.118007894306335,-0.0750959327403949
0.66458,22.3034920238973,-0.118007894306335,-0.0750959327403949
0.675776,22.3034920238973,-0.15019186548079,-0.10727990391485
0.684515999999999,22.3034920238973,-0.118007894306335,-0.0750959327403949
0.698404999999999,22.3356759950717,-0.118007894306335,-0.10727990391485
0.704765999999999,22.3571319758547,-0.118007894306335,-0.0750959327403949
0.715273,22.4214999182036,-0.15019186548079,-0.0750959327403949
0.724310999999999,22.4214999182036,-0.118007894306335,-0.0750959327403949
0.735306,22.4214999182036,-0.118007894306335,-0.0750959327403949
0.74391,22.4214999182036,-0.118007894306335,-0.0750959327403949
0.755039,22.4536838893781,-0.15019186548079,-0.10727990391485
0.766137,22.4536838893781,-0.15019186548079,-0.0536399519574249
0.777667,22.3893159470292,-0.15019186548079,-0.10727990391485
0.783536,22.3893159470292,-0.118007894306335,-0.0750959327403949
0.794963,22.3893159470292,-0.118007894306335,-0.10727990391485
0.80613,22.3893159470292,-0.15019186548079,-0.0750959327403949
0.817038999999999,22.3893159470292,-0.118007894306335,-0.10727990391485
0.827617999999999,22.4214999182036,-0.118007894306335,-0.10727990391485
0.833894999999999,22.4214999182036,-0.118007894306335,-0.0750959327403949
0.847272999999999,22.4536838893781,-0.118007894306335,-0.10727990391485
0.85609,22.4214999182036,-0.118007894306335,-0.10727990391485
0.867205999999999,22.4536838893781,-0.118007894306335,-0.0750959327403949
0.87358,22.4536838893781,-0.118007894306335,-0.0750959327403949
0.885092999999999,22.4536838893781,-0.118007894306335,-0.10727990391485
0.896372,22.4536838893781,-0.118007894306335,-0.10727990391485
0.905359,22.4214999182036,-0.118007894306335,-0.0750959327403949
0.916412999999999,22.3893159470292,-0.118007894306335,-0.0750959327403949
0.925365999999999,22.3571319758547,-0.118007894306335,-0.10727990391485
0.936916999999999,22.3571319758547,-0.118007894306335,-0.0750959327403949
0.945815,22.3571319758547,-0.15019186548079,-0.0750959327403949
0.956534,22.3893159470292,-0.15019186548079,-0.0750959327403949
0.964744,22.4214999182036,-0.118007894306335,-0.0750959327403949
0.975824999999999,22.4536838893781,-0.15019186548079,-0.0750959327403949
0.986662,22.5073238413355,-0.118007894306335,-0.0536399519574249
0.997460999999999,22.53950781251,-0.118007894306335,-0.0536399519574249
1.002955,22.5609637932929,-0.118007894306335,-0.10727990391485
1.016021,22.5931477644674,-0.15019186548079,-0.10727990391485
1.024116,22.5931477644674,-0.15019186548079,-0.0750959327403949
1.035058,22.5931477644674,-0.118007894306335,-0.10727990391485
1.045817,22.6467877164248,-0.15019186548079,-0.10727990391485
1.054751,22.6467877164248,-0.15019186548079,-0.10727990391485
1.065717,22.6467877164248,-0.15019186548079,-0.10727990391485
1.076255,22.6467877164248,-0.15019186548079,-0.10727990391485
1.085194,22.6896996779907,-0.15019186548079,-0.0750959327403949
1.096747,22.6896996779907,-0.182375836655245,-0.10727990391485
1.105826,22.7218836491652,-0.182375836655245,-0.10727990391485
1.114504,22.6896996779907,-0.182375836655245,-0.0750959327403949
1.125979,22.7218836491652,-0.15019186548079,-0.0750959327403949
1.137066,22.7218836491652,-0.15019186548079,-0.0750959327403949
1.14611,22.7647956107311,-0.15019186548079,-0.0750959327403949
1.156559,22.7862515915141,-0.15019186548079,-0.10727990391485
1.164739,22.8184355626886,-0.118007894306335,-0.0750959327403949
1.172944,22.9042594858204,-0.118007894306335,-0.10727990391485
1.186551,22.9364434569949,-0.15019186548079,-0.10727990391485
1.194185,22.9364434569949,-0.118007894306335,-0.10727990391485
1.204645,22.872075514646,-0.15019186548079,-0.0750959327403949
1.21332,22.9042594858204,-0.15019186548079,-0.0750959327403949
1.226846,22.9364434569949,-0.118007894306335,-0.10727990391485
1.233224,22.9042594858204,-0.118007894306335,-0.10727990391485
1.247164,22.872075514646,-0.118007894306335,-0.10727990391485
1.253525,22.872075514646,-0.118007894306335,-0.0750959327403949
1.265152,22.8184355626886,-0.118007894306335,-0.10727990391485
1.273211,22.8184355626886,-0.118007894306335,-0.0750959327403949
1.284564,22.7862515915141,-0.118007894306335,-0.10727990391485
1.295167,22.7647956107311,-0.118007894306335,-0.0750959327403949
1.304126,22.7218836491652,-0.15019186548079,-0.0750959327403949
1.315794,22.6467877164248,-0.118007894306335,-0.10727990391485
1.324315,22.5931477644674,-0.118007894306335,-0.0750959327403949
1.335654,22.5931477644674,-0.118007894306335,-0.12873588469782
1.346191,22.5609637932929,-0.118007894306335,-0.0536399519574249
1.356437,22.53950781251,-0.15019186548079,-0.0750959327403949
1.36483,22.5931477644674,-0.15019186548079,-0.0750959327403949
1.375344,22.6253317356418,-0.15019186548079,-0.10727990391485
1.383755,22.5931477644674,-0.118007894306335,-0.0750959327403949
1.394255,22.6253317356418,-0.118007894306335,-0.0750959327403949
1.405711,22.6253317356418,-0.118007894306335,-0.0750959327403949
1.41461,22.6253317356418,-0.15019186548079,-0.10727990391485
1.423458,22.5609637932929,-0.118007894306335,-0.10727990391485
1.433517,22.53950781251,-0.118007894306335,-0.10727990391485
1.446929,22.4536838893781,-0.118007894306335,-0.0750959327403949
1.456,22.4536838893781,-0.118007894306335,-0.10727990391485
1.465792,22.4214999182036,-0.118007894306335,-0.10727990391485
1.473951,22.4214999182036,-0.15019186548079,-0.12873588469782
1.485173,22.475139870161,-0.118007894306335,-0.10727990391485
1.495174,22.4536838893781,-0.15019186548079,-0.0750959327403949
1.505043,22.475139870161,-0.15019186548079,-0.0750959327403949
1.512832,22.475139870161,-0.118007894306335,-0.10727990391485
1.523617,22.4536838893781,-0.118007894306335,-0.10727990391485
1.534247,22.475139870161,-0.118007894306335,-0.0750959327403949
1.544414,22.4214999182036,-0.118007894306335,-0.0750959327403949
1.553358,22.4214999182036,-0.15019186548079,-0.10727990391485
1.564899,22.4214999182036,-0.0965519135233649,-0.0750959327403949
1.573525,22.3893159470292,-0.0965519135233649,-0.10727990391485
1.584351,22.3893159470292,-0.118007894306335,-0.10727990391485
1.595236,22.4214999182036,-0.0965519135233649,-0.0750959327403949
1.603585,22.3893159470292,-0.0965519135233649,-0.0750959327403949
1.614997,22.4214999182036,-0.0965519135233649,-0.10727990391485
1.623972,22.3893159470292,-0.0965519135233649,-0.10727990391485
1.635578,22.3571319758547,-0.0965519135233649,-0.10727990391485
1.644547,22.3893159470292,-0.0965519135233649,-0.10727990391485
1.656075,22.3356759950717,-0.0965519135233649,-0.0750959327403949
1.664721,22.3034920238973,-0.0965519135233649,-0.0750959327403949
1.676239,22.3034920238973,-0.118007894306335,-0.12873588469782
1.684828,22.2713080527228,-0.118007894306335,-0.0750959327403949
1.692818,22.3034920238973,-0.118007894306335,-0.10727990391485
1.704328,22.2498520719399,-0.118007894306335,-0.0750959327403949
1.715732,22.185484129591,-0.118007894306335,-0.10727990391485
1.72469,22.2176681007654,-0.118007894306335,-0.10727990391485
1.73609,22.1533001584165,-0.118007894306335,-0.10727990391485
1.745111,22.0996602064591,-0.118007894306335,-0.10727990391485
1.756276,22.0674762352846,-0.118007894306335,-0.10727990391485
1.765218,22.0460202545016,-0.118007894306335,-0.10727990391485
1.773907,21.9494683409783,-0.118007894306335,-0.10727990391485
1.782127,21.8958283890209,-0.118007894306335,-0.0750959327403949
1.795686,21.7992764754975,-0.118007894306335,-0.10727990391485
1.804464,21.7349085331486,-0.118007894306335,-0.0750959327403949
1.813278,21.7027245619741,-0.118007894306335,-0.10727990391485
1.82426,21.6705405907997,-0.118007894306335,-0.10727990391485
1.83307,21.6169006388422,-0.118007894306335,-0.0750959327403949
1.846394,21.5310767157104,-0.118007894306335,-0.10727990391485
1.852761,21.4988927445359,-0.118007894306335,-0.10727990391485
1.863468,21.434524802187,-0.118007894306335,-0.12873588469782
1.873959,21.3487008790551,-0.118007894306335,-0.0750959327403949
1.884926,21.3272448982722,-0.15019186548079,-0.10727990391485
1.893233,21.2628769559232,-0.15019186548079,-0.10727990391485
1.902147,21.1985090135743,-0.15019186548079,-0.10727990391485
1.915874,21.1341410712254,-0.15019186548079,-0.10727990391485
1.92483,21.080501119268,-0.15019186548079,-0.10727990391485
1.936407,21.0268611673106,-0.15019186548079,-0.0750959327403949
1.942818,20.9946771961361,-0.15019186548079,-0.10727990391485
1.951723,20.9303092537872,-0.15019186548079,-0.10727990391485
1.965034,20.9624932249617,-0.15019186548079,-0.10727990391485
1.976437,20.8766693018298,-0.15019186548079,-0.12873588469782
1.982628,20.8230293498724,-0.118007894306335,-0.0750959327403949
1.992852,20.747933417132,-0.118007894306335,-0.0750959327403949
2.004563,20.7157494459575,-0.15019186548079,-0.10727990391485
2.015283,20.6621094940001,-0.15019186548079,-0.10727990391485
2.02409,20.6621094940001,-0.118007894306335,-0.0750959327403949
2.03545,20.6299255228256,-0.118007894306335,-0.10727990391485
2.044373,20.5977415516512,-0.118007894306335,-0.10727990391485
2.055943,20.5333736093023,-0.118007894306335,-0.10727990391485
2.062371,20.4797336573448,-0.15019186548079,-0.10727990391485
2.074853,20.4153657149959,-0.118007894306335,-0.10727990391485
2.082363,20.393909734213,-0.118007894306335,-0.10727990391485
2.092914,20.329541791864,-0.15019186548079,-0.12873588469782
2.103371,20.2759018399066,-0.15019186548079,-0.0750959327403949
2.113675,20.2115338975577,-0.15019186548079,-0.0750959327403949
2.123869,20.1900779167747,-0.15019186548079,-0.0750959327403949
2.134966,20.1578939456003,-0.15019186548079,-0.10727990391485
2.143405,20.1042539936429,-0.15019186548079,-0.10727990391485
2.154543,20.0720700224684,-0.118007894306335,-0.12873588469782
2.165114,20.0077020801195,-0.15019186548079,-0.10727990391485
2.174161,20.0077020801195,-0.118007894306335,-0.12873588469782
2.185092,19.9540621281621,-0.118007894306335,-0.0750959327403949
2.192695,19.9540621281621,-0.15019186548079,-0.10727990391485
2.202755,19.9218781569876,-0.15019186548079,-0.0750959327403949
2.213071,19.8682382050302,-0.15019186548079,-0.10727990391485
2.224255,19.8360542338557,-0.15019186548079,-0.0750959327403949
2.235366,19.7287743299409,-0.15019186548079,-0.10727990391485
2.244316,19.7287743299409,-0.15019186548079,-0.10727990391485
2.253158,19.6751343779835,-0.15019186548079,-0.10727990391485
2.264695,19.6751343779835,-0.15019186548079,-0.10727990391485
2.276216,19.642950406809,-0.15019186548079,-0.0750959327403949
2.282532,19.642950406809,-0.15019186548079,-0.10727990391485
2.29382,19.642950406809,-0.15019186548079,-0.12873588469782
2.302586,19.642950406809,-0.118007894306335,-0.12873588469782
2.315811,19.5893104548516,-0.118007894306335,-0.12873588469782
2.322345,19.5571264836771,-0.118007894306335,-0.10727990391485
2.331377,19.5893104548516,-0.118007894306335,-0.160919855872275
2.345509,19.5893104548516,-0.15019186548079,-0.12873588469782
2.354268,19.5571264836771,-0.15019186548079,-0.12873588469782
2.363188,19.5249425125027,-0.118007894306335,-0.12873588469782
2.371664,19.5571264836771,-0.118007894306335,-0.12873588469782
2.382938,19.5249425125027,-0.118007894306335,-0.12873588469782
2.393771,19.4927585413282,-0.118007894306335,-0.10727990391485
2.405126,19.4927585413282,-0.118007894306335,-0.10727990391485
2.41342,19.4927585413282,-0.118007894306335,-0.12873588469782
2.422102,19.4927585413282,-0.118007894306335,-0.10727990391485
2.432692,19.4927585413282,-0.118007894306335,-0.12873588469782
2.444051,19.4713025605453,-0.118007894306335,-0.12873588469782
2.454564,19.4391185893708,-0.118007894306335,-0.12873588469782
2.463169,19.4391185893708,-0.118007894306335,-0.12873588469782
2.474213,19.4069346181963,-0.118007894306335,-0.12873588469782
2.485528,19.3854786374134,-0.15019186548079,-0.10727990391485
2.491891,19.4069346181963,-0.118007894306335,-0.12873588469782
2.502958,19.3532946662389,-0.118007894306335,-0.10727990391485
2.513672,19.3854786374134,-0.118007894306335,-0.10727990391485
2.522335,19.3532946662389,-0.15019186548079,-0.0750959327403949
2.53331,19.3211106950645,-0.118007894306335,-0.10727990391485
2.544559,19.3532946662389,-0.118007894306335,-0.10727990391485
2.550935,19.3532946662389,-0.118007894306335,-0.160919855872275
2.565053,19.3532946662389,-0.15019186548079,-0.0750959327403949
2.574002,19.3211106950645,-0.118007894306335,-0.10727990391485
2.582973,19.28892672389,-0.118007894306335,-0.10727990391485
2.591917,19.28892672389,-0.118007894306335,-0.12873588469782
2.603546,19.267470743107,-0.118007894306335,-0.0750959327403949
2.612256,19.2352867719326,-0.15019186548079,-0.0750959327403949
2.623049,19.267470743107,-0.15019186548079,-0.10727990391485
2.631873,19.2352867719326,-0.15019186548079,-0.10727990391485
2.640384,19.2352867719326,-0.15019186548079,-0.0750959327403949
2.65185,19.2031028007581,-0.15019186548079,-0.0750959327403949
2.66349,19.2031028007581,-0.15019186548079,-0.12873588469782
2.671992,19.2031028007581,-0.15019186548079,-0.10727990391485
2.683565,19.1816468199752,-0.15019186548079,-0.10727990391485
2.692463,19.1494628488007,-0.15019186548079,-0.10727990391485
2.700466,19.1816468199752,-0.15019186548079,-0.10727990391485
2.711627,19.1065508872348,-0.15019186548079,-0.12873588469782
2.722127,19.0850949064518,-0.15019186548079,-0.10727990391485
2.732906,19.0529109352773,-0.15019186548079,-0.0750959327403949
2.741236,19.0529109352773,-0.15019186548079,-0.0750959327403949
2.752772,19.0207269641029,-0.15019186548079,-0.12873588469782
2.763856,19.0207269641029,-0.15019186548079,-0.12873588469782
2.774919,18.9885429929284,-0.15019186548079,-0.12873588469782
2.783375,18.9670870121455,-0.15019186548079,-0.10727990391485
2.791847,18.9027190697965,-0.15019186548079,-0.0750959327403949
2.800839,18.934903040971,-0.15019186548079,-0.12873588469782
2.812353,18.934903040971,-0.15019186548079,-0.12873588469782
2.822972,18.9027190697965,-0.118007894306335,-0.10727990391485
2.83146,18.934903040971,-0.118007894306335,-0.10727990391485
2.843094,18.9027190697965,-0.118007894306335,-0.10727990391485
2.853606,18.9670870121455,-0.118007894306335,-0.10727990391485
2.862335,18.9885429929284,-0.118007894306335,-0.10727990391485
2.873759,19.0207269641029,-0.118007894306335,-0.0750959327403949
2.882692,19.0529109352773,-0.118007894306335,-0.10727990391485
2.893933,19.0529109352773,-0.118007894306335,-0.10727990391485
2.902714,19.1065508872348,-0.15019186548079,-0.10727990391485
2.913724,19.1065508872348,-0.118007894306335,-0.0750959327403949
2.922512,19.1065508872348,-0.118007894306335,-0.0750959327403949
2.934254,19.1065508872348,-0.118007894306335,-0.0750959327403949
2.942583,19.1494628488007,-0.118007894306335,-0.10727990391485
2.953367,19.1494628488007,-0.118007894306335,-0.0536399519574249
2.959726,19.1065508872348,-0.15019186548079,-0.10727990391485
2.973604,19.1065508872348,-0.118007894306335,-0.0750959327403949
2.982555,19.1065508872348,-0.118007894306335,-0.10727990391485
2.993426,19.1494628488007,-0.118007894306335,-0.0750959327403949
3.002344,19.1065508872348,-0.118007894306335,-0.0750959327403949
3.010504,19.1065508872348,-0.118007894306335,-0.0750959327403949
3.021758,19.1494628488007,-0.118007894306335,-0.10727990391485
3.03079,19.1494628488007,-0.15019186548079,-0.10727990391485
3.044504,19.1816468199752,-0.15019186548079,-0.0750959327403949
3.050088,19.1816468199752,-0.15019186548079,-0.0750959327403949
