Time [s],Gauge Pressure,Inspiratory differenrtial pressure,Expiratory differenrtial pressure
0,8921,8183,8182
0.00324099999999561,8926,8183,8185
0.0214629999999971,8930,8181,8185
0.0225329999999957,8933,8181,8182
0.0269809999999993,8933,8178,8182
0.0352499999999978,8930,8181,8182
0.0460419999999999,8926,8178,8182
0.0566699999999969,8926,8178,8182
0.0648479999999978,8924,8178,8182
0.0752619999999951,8916,8181,8182
0.0877249999999989,8910,8178,8182
0.0982849999999971,8905,8178,8182
0.104645999999995,8902,8178,8180
0.113442999999997,8897,8175,8182
0.124964999999996,8894,8178,8182
0.135916999999999,8889,8178,8182
0.144931999999997,8879,8178,8180
0.157781,8874,8175,8182
0.166466999999997,8863,8178,8185
0.177217999999996,8858,8178,8180
0.187894,8852,8175,8182
0.196905000000001,8844,8175,8180
0.205450999999996,8832,8178,8182
0.213944999999995,8824,8178,8180
0.225544999999997,8811,8178,8182
0.235996999999998,8802,8175,8180
0.244931999999999,8785,8178,8182
0.256465999999996,8774,8178,8180
0.265282999999997,8764,8175,8180
0.276765999999995,8745,8175,8182
0.285328999999997,8725,8178,8180
0.296951999999997,8705,8178,8182
0.308384999999994,8686,8175,8182
0.314776999999999,8661,8181,8182
0.326349999999998,8635,8181,8182
0.334542999999996,8613,8178,8182
0.345807999999998,8589,8181,8180
0.357368000000001,8570,8181,8182
0.366315999999998,8553,8181,8182
0.377240999999998,8536,8181,8182
0.385872999999997,8525,8181,8182
0.397407999999999,8511,8181,8182
0.403804000000001,8500,8181,8180
0.417804999999994,8487,8183,8182
0.425914999999996,8476,8186,8182
0.437421999999998,8463,8186,8182
0.445879999999995,8452,8186,8182
0.454540999999999,8442,8188,8180
0.466159999999995,8433,8188,8182
0.474761000000001,8420,8191,8180
0.485931000000001,8412,8191,8182
0.497524999999996,8406,8193,8180
0.503926,8396,8193,8182
0.518012999999996,8387,8196,8180
0.524433999999999,8377,8196,8182
0.535207,8364,8199,8182
0.544156000000001,8358,8199,8182
0.557811000000001,8342,8201,8180
0.564172999999997,8339,8201,8182
0.575649999999996,8326,8204,8182
0.584457,8320,8201,8180
0.595476999999995,8312,8204,8182
0.606851999999996,8301,8206,8180
0.614688000000001,8293,8206,8182
0.626067999999997,8291,8206,8182
0.635038999999999,8283,8206,8182
0.646586999999997,8273,8206,8182
0.654781,8265,8206,8182
0.666039999999995,8276,8209,8182
0.677658999999998,8271,8209,8182
0.686129999999999,8268,8209,8182
0.697161999999999,8265,8209,8180
0.705185999999998,8271,8209,8180
0.714174,8265,8209,8182
0.725801999999995,8268,8206,8180
0.734885999999996,8271,8209,8180
0.746502999999997,8268,8209,8180
0.755136,8260,8209,8180
0.764057000000001,8265,8209,8182
0.774726000000001,8263,8209,8182
0.783575999999996,8268,8212,8182
0.795085999999998,8263,8209,8182
0.803888000000001,8260,8209,8182
0.814546,8265,8209,8182
0.823208999999999,8252,8212,8182
0.834852999999995,8257,8212,8182
0.846086999999997,8246,8212,8182
0.854993,8246,8212,8182
0.865530999999997,8249,8212,8182
0.876829000000001,8238,8212,8182
0.885801000000001,8244,8214,8180
0.896887999999997,8235,8214,8180
0.905842999999997,8244,8212,8180
0.914009999999998,8233,8214,8180
0.925376999999997,8238,8214,8182
0.934441,8246,8214,8182
0.945571999999999,8235,8212,8180
0.956097,8244,8212,8182
0.964566999999995,8246,8212,8182
0.976098,8249,8212,8180
0.984995999999995,8257,8209,8180
0.996483999999995,8252,8212,8182
1.004565,8249,8212,8182
1.016101,8244,8212,8182
1.02517,8249,8209,8180
1.036032,8257,8212,8180
1.044992,8260,8209,8180
1.056548,8263,8212,8180
1.065531,8263,8212,8182
1.076803,8268,8212,8180
1.083179,8271,8212,8180
1.09437,8268,8209,8180
1.103359,8263,8212,8180
1.114406,8273,8212,8182
1.125088,8263,8212,8182
1.13379399999999,8263,8212,8180
1.145184,8271,8212,8182
1.156228,8271,8209,8180
1.162199,8271,8209,8180
1.175964,8268,8209,8180
1.185011,8265,8206,8182
1.196624,8268,8209,8180
1.205163,8271,8206,8182
1.213726,8271,8209,8182
1.224726,8268,8209,8182
1.232813,8271,8209,8182
1.245463,8268,8206,8180
1.256284,8273,8206,8177
1.265308,8263,8209,8177
1.276816,8271,8206,8180
1.285736,8263,8206,8180
1.297069,8265,8206,8182
1.303222,8268,8206,8182
1.314187,8279,8206,8180
1.324543,8283,8209,8177
1.335287,8276,8206,8180
1.343991,8271,8206,8182
1.35496699999999,8276,8206,8182
1.363934,8283,8209,8180
1.375495,8285,8209,8180
1.384463,8288,8206,8182
1.396059,8299,8206,8182
1.406498,8310,8206,8182
1.41556,8307,8206,8180
1.424108,8310,8206,8182
1.43421,8318,8206,8180
1.44283799999999,8318,8204,8180
1.453999,8320,8201,8182
1.465377,8326,8206,8182
1.47579899999999,8329,8201,8182
1.484355,8326,8201,8180
1.495897,8329,8199,8180
1.504898,8329,8201,8182
1.511103,8323,8201,8182
1.525973,8320,8201,8182
1.534854,8320,8201,8185
1.545707,8315,8201,8180
1.551831,8326,8201,8182
1.565258,8318,8201,8182
1.575622,8315,8204,8182
1.584179,8318,8204,8182
1.595749,8318,8204,8182
1.60216,8320,8204,8180
1.61354799999999,8331,8204,8182
1.62253,8326,8204,8182
1.635901,8339,8204,8182
1.64238599999999,8337,8204,8182
1.653204,8342,8204,8180
1.664343,8347,8204,8182
1.675738,8353,8204,8182
1.682129,8356,8204,8182
1.693358,8358,8204,8180
1.704909,8361,8204,8182
1.71643,8364,8204,8182
1.722845,8366,8201,8182
1.734391,8377,8204,8182
1.74294099999999,8369,8201,8182
1.753468,8372,8204,8180
1.766302,8382,8204,8180
1.772686,8379,8204,8180
1.784063,8385,8204,8180
1.793036,8372,8204,8182
1.804673,8382,8201,8180
1.812772,8387,8201,8182
1.824213,8396,8201,8182
1.835752,8401,8199,8182
1.844797,8409,8199,8182
1.85363299999999,8412,8199,8180
1.861844,8414,8196,8182
1.875623,8425,8196,8182
1.884389,8425,8196,8182
1.892909,8425,8196,8182
1.90446499999999,8431,8196,8182
1.913103,8433,8196,8182
1.924219,8436,8193,8182
1.935755,8444,8193,8180
1.941709,8444,8193,8182
1.956088,8450,8193,8182
1.962487,8455,8193,8182
1.975668,8458,8191,8182
1.981803,8463,8191,8182
1.99566799999999,8473,8186,8182
2.004614,8476,8186,8182
2.013323,8481,8186,8182
2.021475,8487,8186,8182
2.032746,8487,8186,8182
2.044307,8490,8183,8182
2.05218199999999,8498,8183,8182
2.062332,8503,8183,8182
2.07234099999999,8514,8181,8182
2.082922,8527,8181,8182
2.094327,8541,8183,8182
2.103264,8556,8181,8182
2.114465,8567,8181,8182
2.125274,8581,8178,8182
2.134253,8597,8181,8182
2.145799,8611,8178,8182
2.152188,8622,8178,8182
2.163745,8639,8178,8182
2.171928,8656,8178,8182
2.184922,8713,8175,8180
2.19311099999999,8738,8181,8182
2.204019,8774,8181,8185
2.215091,8819,8181,8185
2.223771,8866,8181,8187
2.2351,8910,8181,8182
2.241052,8944,8181,8185
2.252396,8985,8178,8187
2.263694,9024,8181,8182
2.272192,9060,8181,8187
2.280903,9079,8181,8185
2.294434,9101,8181,8185
2.30354999999999,9127,8181,8185
2.314482,9149,8181,8182
2.323558,9160,8181,8182
2.331881,9173,8181,8185
2.342752,9192,8181,8182
2.354002,9200,8178,8185
2.362967,9216,8178,8185
2.374025,9224,8178,8185
2.384484,9238,8181,8185
2.393397,9246,8181,8185
2.404506,9262,8181,8185
2.412809,9273,8178,8185
2.424,9287,8178,8185
2.432384,9297,8178,8185
2.442823,9307,8175,8185
2.454396,9315,8178,8185
2.464225,9329,8175,8185
2.472683,9337,8175,8182
2.484011,9343,8175,8182
2.491979,9354,8178,8182
2.502747,9365,8178,8180
2.514168,9373,8178,8182
2.523165,9381,8178,8180
2.534212,9387,8181,8182
2.543218,9396,8178,8182
2.554688,9407,8178,8180
2.563622,9415,8178,8182
2.575176,9424,8181,8185
2.581517,9430,8178,8182
2.592672,9440,8181,8182
2.60355,9448,8181,8185
2.612227,9457,8178,8185
2.62368499999999,9462,8178,8185
2.634192,9470,8178,8182
2.640584,9478,8181,8185
2.65472,9485,8181,8182
2.66112099999999,9490,8181,8185
2.672676,9499,8181,8185
2.681646,9507,8181,8185
2.692379,9513,8178,8182
2.702403,9518,8181,8182
2.713273,9521,8178,8185
2.722068,9526,8183,8182
2.733192,9524,8181,8185
2.74218,9526,8183,8185
2.753754,9532,8183,8185
2.762732,9540,8183,8185
2.771652,9540,8183,8182
2.784473,9543,8181,8185
2.79085,9548,8181,8185
2.804072,9548,8181,8187
2.811989,9556,8183,8185
2.823105,9561,8181,8182
2.831733,9567,8181,8185
2.840751,9570,8181,8182
2.852124,9577,8181,8185
2.861164,9582,8181,8182
2.872648,9582,8181,8185
2.881606,9585,8181,8185
2.893163,9588,8181,8182
2.902255,9591,8181,8182
2.913787,9591,8181,8185
2.922569,9593,8181,8182
2.932629,9593,8181,8185
2.941017,9596,8178,8185
2.951967,9596,8181,8182
2.960989,9596,8181,8185
2.971365,9599,8181,8185
2.982919,9601,8178,8182
2.993963,9601,8178,8182
3.000089,9599,8181,8182
3.01399199999999,9599,8181,8182
3.022733,9599,8181,8182
3.032957,9599,8181,8182
3.041792,9593,8181,8182
3.052159,9591,8181,8182
3.059363,9588,8178,8180
3.071549,9588,8181,8182
3.082807,9585,8181,8182
3.091334,9582,8181,8182
3.102465,9582,8181,8185
3.111446,9577,8181,8185
3.122661,9577,8181,8182
3.133618,9577,8178,8185
3.141693,9574,8181,8182
3.153097,9574,8181,8185
3.164111,9574,8178,8182
3.170486,9577,8181,8182
3.182035,9574,8181,8185
3.19024899999999,9570,8178,8185
3.201692,9567,8181,8185
3.21299399999999,9570,8181,8185
3.221965,9574,8181,8182
3.233106,9574,8181,8180
3.241647,9574,8181,8182
3.253407,9574,8181,8182
3.259801,9574,8181,8185
3.273642,9574,8181,8182
3.282727,9574,8181,8182
3.294152,9574,8181,8185
3.299735,9577,8181,8185
3.310802,9577,8181,8185
3.321653,9577,8181,8182
3.332224,9574,8181,8182
3.341082,9574,8181,8185
3.352166,9577,8183,8182
3.361183,9577,8183,8182
3.37242999999999,9577,8183,8182
3.38061099999999,9577,8183,8185
3.392168,9577,8183,8185
3.403557,9577,8181,8182
3.412584,9574,8183,8182
3.421356,9577,8181,8182
3.432223,9577,8181,8182
3.440769,9577,8183,8182
3.452371,9577,8183,8182
3.460449,9577,8181,8182
3.471701,9580,8178,8182
3.482596,9582,8181,8185
3.490769,9582,8181,8185
3.50235499999999,9582,8181,8182
3.51398,9585,8181,8182
3.520415,9585,8181,8185
3.532067,9582,8181,8182
3.540856,9580,8181,8182
3.551691,9580,8181,8182
3.56268,9580,8181,8185
3.571264,9580,8178,8182
3.57966,9580,8181,8185
3.591116,9580,8181,8185
3.602533,9582,8181,8182
3.611522,9582,8178,8182
3.620537,9582,8181,8182
3.632099,9582,8181,8182
3.638143,9582,8181,8182
3.65235699999999,9585,8181,8182
3.660432,9585,8181,8185
3.671238,9588,8183,8182
3.683225,9591,8183,8185
3.688962,9591,8183,8185
3.70047899999999,9591,8183,8185
3.711581,9588,8181,8180
3.72282,9588,8183,8182
3.728872,9585,8183,8185
3.743013,9585,8183,8185
3.751476,9585,8183,8182
3.76269,9588,8181,8182
3.768679,9591,8181,8182
3.779898,9588,8181,8182
3.793109,9591,8181,8180
3.80171499999999,9591,8181,8180
3.810768,9588,8178,8185
3.819244,9585,8178,8180
3.830416,9585,8181,8182
3.840836,9582,8178,8182
3.849813,9582,8181,8182
3.861111,9582,8178,8185
3.869732,9580,8181,8182
3.880387,9577,8181,8182
3.891959,9577,8178,8182
3.90093599999999,9570,8181,8182
3.912281,9570,8178,8182
3.920834,9567,8181,8182
3.932421,9564,8181,8182
3.94106,9564,8181,8180
3.949967,9561,8178,8185
3.96108,9561,8181,8182
3.971655,9559,8178,8182
3.980559,9556,8181,8182
3.991592,9559,8178,8185
3.99995699999999,9559,8181,8182
4.01159999999999,9556,8178,8185
4.020549,9553,8181,8182
4.032075,9553,8178,8182
4.040906,9553,8178,8185
4.052514,9556,8181,8180
4.06144,9551,8181,8185
4.069055,9551,8178,8182
4.08235699999999,9551,8181,8185
4.091107,9551,8178,8182
4.102434,9551,8178,8185
4.108869,9548,8175,8182
4.119937,9548,8178,8182
4.128476,9548,8175,8185
4.139444,9548,8175,8185
4.148062,9548,8175,8182
4.158956,9548,8175,8185
4.17012099999999,9545,8175,8182
4.18094199999999,9548,8178,8180
4.189363,9545,8183,8182
4.200081,9543,8181,8185
4.21082699999999,9543,8183,8182
4.219306,9543,8183,8182
4.230161,9543,8183,8182
4.240991,9540,8183,8182
4.248865,9537,8183,8185
4.261875,9537,8183,8185
4.270682,9534,8183,8185
4.281907,9534,8181,8185
4.290357,9534,8183,8180
4.301272,9534,8178,8185
4.31022,9532,8181,8185
4.319066,9529,8178,8182
4.330425,9526,8181,8182
4.341759,9524,8181,8182
4.350765,9513,8181,8182
4.362319,9507,8181,8182
4.368189,9505,8181,8185
4.379502,9499,8181,8185
4.38833899999999,9497,8178,8182
4.40160299999999,9494,8178,8180
4.407839,9487,8178,8182
4.421361,9487,8178,8182
4.42972,9487,8178,8182
4.441285,9482,8178,8185
4.450215,9485,8178,8180
4.459796,9478,8181,8182
4.469123,9476,8178,8182
4.47971,9473,8181,8182
4.49061099999999,9470,8178,8185
4.499183,9467,8178,8182
4.510426,9467,8178,8182
4.518806,9462,8178,8182
4.530338,9457,8178,8180
4.538782,9451,8178,8185
4.550328,9448,8175,8182
4.56193099999999,9446,8178,8185
4.568329,9446,8175,8182
4.579914,9440,8178,8185
4.590702,9438,8178,8185
4.599633,9432,8178,8185
4.610948,9432,8181,8182
4.61980699999999,9424,8178,8180
4.63106699999999,9420,8178,8177
4.639903,9415,8181,8180
4.651466,9410,8181,8182
4.660562,9407,8178,8180
4.669112,9404,8181,8180
4.679797,9399,8178,8177
4.688783,9393,8178,8180
4.700353,9391,8181,8180
4.709329,9381,8178,8182
4.717473,9379,8178,8180
4.730718,9376,8178,8180
4.73943,9373,8178,8182
4.749906,9365,8178,8182
4.758697,9363,8181,8185
4.770277,9360,8178,8185
4.778838,9357,8181,8185
4.790464,9357,8178,8182
4.799203,9354,8181,8185
4.81084,9348,8178,8182
4.819103,9345,8178,8182
4.82783,9343,8178,8182
4.84093,9340,8181,8182
4.849902,9334,8181,8182
4.86149899999999,9334,8178,8182
4.870495,9332,8181,8182
4.879503,9329,8178,8182
4.888492,9324,8178,8182
4.900096,9318,8181,8182
4.90904099999999,9313,8178,8182
4.920233,9307,8181,8185
4.928725,9302,8181,8185
4.93953399999999,9297,8181,8180
4.94729599999999,9290,8181,8180
4.9578,9285,8181,8182
4.970174,9276,8181,8180
4.976428,9273,8181,8182
4.990256,9273,8178,8182
4.998566,9259,8178,8182
5.009361,9259,8181,8180
5.01999199999999,9251,8181,8182
5.030815,9243,8181,8180
5.039271,9235,8178,8180
5.049518,9230,8178,8182
5.057547,9221,8178,8182
5.069152,9219,8181,8182
5.078486,9208,8178,8182
5.088801,9200,8178,8180
5.099399,9192,8178,8182
5.108369,9187,8178,8182
5.11947,9182,8181,8185
5.130484,9173,8181,8185
5.13945,9168,8178,8182
5.151023,9163,8178,8180
5.159554,9152,8181,8185
5.170797,9144,8181,8180
5.177165,9130,8178,8182
5.190911,9113,8178,8182
5.199886,9096,8178,8182
5.211033,9077,8181,8182
5.217401,9066,8178,8180
5.228584,9047,8178,8180
5.23753,9032,8178,8180
5.248616,9012,8178,8182
5.257569,8991,8181,8182
5.269142,8974,8181,8182
5.27734,8957,8178,8182
5.288399,8938,8181,8180
5.300052,8916,8181,8182
5.309385,8899,8178,8180
5.317917,8882,8181,8182
5.328736,8863,8178,8180
5.339833,8850,8181,8180
5.348726,8832,8181,8182
5.357206,8822,8181,8180
5.368317,8808,8178,8180
5.376864,8793,8181,8182
5.38794499999999,8785,8181,8182
5.399516,8772,8181,8182
5.408459,8766,8178,8180
5.420047,8758,8178,8180
5.42874699999999,8750,8181,8182
5.440299,8738,8178,8180
5.44926,8733,8181,8180
5.460328,8725,8181,8180
5.467947,8718,8178,8182
5.47896799999999,8713,8181,8180
5.48792599999999,8713,8178,8182
5.499206,8707,8181,8182
5.508178,8707,8181,8182
5.519343,8699,8181,8182
5.527932,8694,8181,8182
5.536721,8683,8181,8180
5.550801,8675,8181,8180
5.557172,8664,8181,8180
5.568724,8647,8181,8182
5.577671,8627,8181,8182
5.589209,8608,8181,8182
5.597801,8589,8178,8182
5.60933499999999,8573,8181,8180
5.620248,8553,8181,8180
5.626274,8538,8181,8182
5.640392,8522,8181,8180
5.646763,8506,8181,8182
5.660288,8490,8183,8182
5.668886,8473,8183,8182
5.680428,8455,8186,8180
5.686794,8439,8186,8180
5.698333,8420,8188,8180
5.707302,8406,8188,8180
5.717899,8385,8193,8182
5.726717,8369,8193,8180
5.738253,8356,8196,8182
5.747205,8342,8196,8182
5.758738,8331,8199,8180
5.769274,8315,8199,8182
5.778222,8304,8204,8180
5.78945299999999,8299,8204,8182
5.799964,8283,8204,8180
5.808905,8279,8204,8180
5.817866,8283,8206,8180
5.826809,8276,8206,8180
5.838324,8268,8209,8180
5.84726999999999,8276,8209,8182
5.85878899999999,8276,8206,8180
5.869156,8263,8212,8182
5.877553,8265,8212,8185
5.888732,8268,8212,8180
5.8972,8263,8212,8182
5.90581599999999,8260,8212,8180
5.91997199999999,8257,8212,8180
5.929044,8257,8214,8182
5.939477,8260,8212,8182
5.945965,8260,8214,8180
5.959301,8257,8217,8180
5.970284,8260,8209,8182
5.979018,8260,8212,8180
5.98757,8265,8212,8182
5.998689,8268,8214,8182
6.007458,8273,8214,8180
6.018829,8279,8212,8182
6.027817,8279,8212,8180
6.03939,8299,8214,8180
6.04831799999999,8293,8214,8180
6.056764,8288,8212,8182
6.06765499999999,8288,8214,8182
6.079042,8285,8214,8180
6.08799,8296,8214,8182
6.099522,8293,8217,8180
6.10850199999999,8304,8217,8180
6.117019,8307,8214,8182
6.128124,8301,8217,8180
6.13967,8299,8217,8182
6.148626,8299,8214,8182
6.157615,8307,8214,8185
6.168129,8315,8214,8185
6.176987,8315,8214,8182
6.188074,8312,8212,8180
6.196476,8307,8212,8182
6.207624,8318,8214,8182
6.219128,8312,8214,8182
6.228082,8310,8214,8182
6.239613,8310,8214,8182
6.245992,8301,8212,8182
6.264141,8296,8214,8180
6.267436,8293,8217,8182
6.278758,8293,8214,8182
6.28764,8296,8217,8180
6.296581,8293,8214,8180
6.307614,8285,8214,8180
6.316588,8293,8217,8182
6.328129,8288,8217,8185
6.33685,8293,8219,8182
6.348382,8293,8214,8182
6.359369,8288,8217,8182
6.365735,8291,8214,8182
6.377069,8285,8217,8180
6.388352,8288,8217,8180
6.396895,8288,8214,8182
6.408431,8285,8217,8180
6.417316,8285,8219,8180
6.426289,8285,8217,8180
6.437831,8285,8217,8180
6.446791,8283,8217,8182
6.457843,8288,8217,8180
6.466925,8283,8217,8180
6.478036,8296,8217,8182
6.486813,8288,8217,8180
6.497449,8283,8217,8182
6.506382,8283,8219,8182
6.517985,8273,8217,8180
6.526699,8279,8217,8182
6.538295,8283,8219,8182
6.547303,8283,8219,8182
6.558218,8283,8219,8182
6.56863,8283,8217,8182
6.57706,8283,8219,8180
6.585673,8279,8217,8182
6.59717999999999,8283,8219,8182
6.608721,8279,8219,8177
6.61767,8285,8219,8182
6.626296,8271,8219,8182
6.63738499999999,8276,8219,8180
6.646318,8271,8219,8180
6.657197,8265,8222,8180
6.668329,8265,8222,8182
6.677302,8265,8219,8182
6.688451,8268,8222,8180
6.69739999999999,8271,8219,8177
6.708935,8271,8217,8182
6.715297,8283,8219,8180
6.726444,8279,8219,8177
6.737598,8283,8219,8180
6.74656299999999,8283,8217,8180
6.757652,8288,8217,8177
6.768382,8283,8219,8180
6.777355,8283,8217,8180
6.788608,8288,8217,8182
6.79449899999999,8291,8214,8180
6.805858,8296,8217,8180
6.81747,8307,8217,8180
6.826335,8326,8212,8182
6.83768,8345,8212,8182
6.84663,8347,8212,8180
6.857843,8364,8209,8182
6.866415,8366,8209,8182
6.877942,8364,8206,8182
6.886765,8369,8209,8180
6.895743,8377,8206,8182
6.907339,8382,8201,8182
6.916275,8393,8201,8182
6.927389,8396,8201,8180
6.935593,8401,8199,8182
6.946925,8406,8199,8182
6.956056,8420,8196,8182
6.968311,8431,8196,8182
6.976504,8439,8193,8180
6.988059,8458,8191,8180
6.996027,8479,8191,8185
7.006952,8503,8188,8182
7.017714,8519,8186,8180
7.02668,8541,8186,8182
7.03801,8556,8183,8180
7.046962,8573,8181,8182
7.055535,8578,8181,8182
7.064666,8586,8181,8182
7.076195,8592,8178,8180
7.085125,8600,8178,8182
7.096434,8608,8178,8182
7.10538,8619,8178,8182
7.116929,8630,8178,8182
7.128133,8664,8175,8195
7.13447,8689,8183,8182
7.146003,8730,8181,8185
7.156643,8766,8181,8182
7.165067,8804,8181,8185
7.176119,8850,8181,8185
7.186962,8891,8178,8185
7.195168,8936,8178,8185
7.205791,8980,8181,8185
7.215698,9021,8181,8185
7.224309,9058,8178,8185
7.238074,9087,8178,8187
7.243471,9122,8181,8185
7.256086,9146,8181,8187
7.267501,9171,8178,8185
7.27645,9198,8178,8185
7.285432,9221,8181,8185
7.296989,9246,8181,8187
7.305971,9270,8181,8182
7.314936,9290,8181,8185
7.326358,9310,8181,8185
7.335341,9332,8178,8185
7.346906,9352,8178,8185
7.357594,9368,8181,8185
7.366339,9387,8181,8185
7.375287,9399,8178,8185
7.387057,9415,8178,8185
7.393442,9424,8181,8185
7.404986,9435,8181,8185
7.416539,9446,8181,8182
7.427979,9454,8181,8185
7.434343,9459,8178,8185
7.44588,9462,8178,8182
7.45483,9467,8181,8182
7.46673,9467,8178,8185
7.47684599999999,9467,8178,8182
7.485516,9473,8178,8182
7.496558,9478,8181,8185
7.505166,9482,8178,8185
7.516745,9485,8178,8185
7.522519,9487,8178,8185
7.535781,9490,8181,8182
7.546852,9494,8178,8182
7.557386,9502,8181,8182
7.563423,9505,8178,8182
7.574423,9502,8178,8182
7.585489,9507,8181,8182
7.59642299999999,9510,8181,8185
7.60537,9510,8178,8185
7.61434999999999,9515,8178,8182
7.625887,9518,8178,8185
7.63739899999999,9524,8178,8185
7.64376499999999,9529,8178,8185
7.655283,9534,8178,8182
7.666253,9529,8181,8185
7.675065,9529,8178,8185
7.6858,9532,8178,8185
7.696965,9534,8181,8182
7.705915,9532,8181,8185
7.717474,9529,8181,8182
7.726433,9529,8181,8182
