Time [s],Gauge Pressure,Inspiratory differenrtial pressure,Expiratory differenrtial pressure
0,8385,8178,8180
0.00310500000000147,8361,8178,8180
0.00688800000000001,8337,8178,8180
0.0244959999999992,8315,8178,8180
0.0320649999999993,8291,8178,8180
0.0334530000000015,8265,8178,8180
0.0394410000000001,8225,8178,8182
0.0506519999999995,8182,8178,8180
0.0620159999999998,8166,8178,8180
0.068480000000001,8158,8181,8180
0.0825460000000007,8133,8183,8180
0.0914000000000001,8117,8186,8180
0.1005,8103,8186,8180
0.109632000000001,8085,8188,8180
0.121264,8080,8188,8180
0.131392000000002,8066,8191,8180
0.140979000000002,8061,8191,8180
0.149405000000002,8053,8193,8180
0.160447000000001,8042,8191,8180
0.172006,8034,8193,8180
0.180955000000001,8023,8196,8180
0.189578000000001,8018,8191,8180
0.201162,8009,8193,8180
0.210194000000001,8003,8193,8182
0.219268,7983,8196,8180
0.23104,7972,8199,8182
0.239879999999999,7970,8199,8180
0.250859000000002,7961,8201,8180
0.259814000000002,7951,8201,8180
0.271338,7953,8199,8180
0.280187000000002,7953,8201,8180
0.291478999999999,7956,8204,8180
0.300121000000001,7942,8204,8180
0.311778,7948,8206,8180
0.320561000000001,7961,8204,8177
0.328687000000002,7951,8199,8180
0.340028,7948,8201,8180
0.351383999999999,7951,8204,8180
0.356945,7956,8209,8180
0.367882000000002,7953,8206,8180
0.382071,7951,8199,8180
0.391231999999999,7942,8196,8180
0.400183000000002,7961,8206,8177
0.409210000000002,7945,8206,8180
0.420884000000001,7953,8204,8180
0.429947000000002,7937,8206,8180
0.441206000000001,7937,8199,8180
0.446671000000002,7929,8199,8180
0.459982,7918,8204,8177
0.470960000000002,7923,8201,8180
0.479891000000002,7929,8204,8180
0.491496999999999,7921,8199,8177
0.500561000000001,7926,8209,8180
0.512145,7921,8204,8180
0.521215999999999,7909,8204,8180
0.530141,7926,8217,8180
0.539173000000002,7923,8214,8180
0.550879000000002,7921,8204,8177
0.559550999999999,7923,8209,8180
0.570547999999999,7923,8212,8182
0.578994999999999,7909,8204,8180
0.590637000000001,7915,8204,8177
0.599703999999999,7909,8214,8180
0.608763,7918,8206,8177
0.620009,7918,8206,8180
0.629057,7918,8206,8177
0.640145,7912,8209,8180
0.650949000000001,7923,8196,8177
0.65981,7918,8199,8180
0.671002000000001,7926,8201,8180
0.679872,7923,8201,8180
0.691351000000001,7923,8191,8180
0.697310000000002,7929,8201,8180
0.710841000000002,7934,8199,8180
0.719049999999999,7937,8191,8180
0.730264999999999,7940,8193,8180
0.739858000000002,7934,8209,8180
0.751307000000001,7932,8204,8177
0.760145000000001,7937,8193,8177
0.771436000000001,7932,8196,8177
0.777639000000001,7923,8201,8177
0.789452000000001,7926,8201,8177
0.801151000000001,7926,8204,8180
0.810114000000002,7921,8201,8177
0.819148000000002,7929,8206,8177
0.828199999999999,7915,8196,8174
0.836871000000002,7921,8206,8177
0.851092000000001,7915,8201,8180
0.860104,7921,8193,8180
0.868546000000002,7915,8193,8182
0.878830000000001,7921,8201,8180
0.889631000000001,7918,8191,8180
0.898727000000001,7921,8199,8182
0.910399999999999,7909,8204,8180
0.918925999999999,7912,8193,8180
0.930209999999999,7915,8201,8180
0.941454000000004,7918,8204,8180
0.950509999999998,7904,8183,8180
0.959571,7909,8201,8182
0.968242999999998,7912,8204,8180
0.979901000000002,7912,8196,8177
0.988507999999999,7912,8201,8180
0.999758000000003,7921,8212,8177
1.008121,7921,8206,8180
1.019681,7926,8196,8177
1.028814,7929,8196,8180
1.040198,7940,8196,8180
1.051083,7942,8191,8180
1.059929,7956,8199,8180
1.071406,7967,8199,8180
1.077631,7986,8196,8182
1.089009,8018,8188,8180
1.100334,8072,8178,8180
1.108544,8144,8178,8180
1.120252,8185,8175,8182
1.129384,8185,8178,8180
1.140588,8182,8181,8180
1.149406,8182,8181,8180
1.160733,8185,8181,8180
1.169688,8185,8181,8180
1.177882,8185,8181,8180
1.189136,8182,8181,8180
1.200253,8185,8181,8180
1.206163,8182,8181,8180
1.219848,8182,8181,8180
1.228961,8185,8181,8180
1.240555,8185,8181,8180
1.249602,8182,8178,8180
1.256069,8182,8181,8180
1.267714,8182,8181,8180
1.281075,8185,8181,8180
1.290137,8182,8178,8180
1.298454,8182,8181,8180
1.307302,8182,8181,8180
1.316192,8222,8181,8180
1.330456,8241,8181,8185
1.339186,8265,8181,8185
1.347902,8291,8181,8187
1.3593,8326,8181,8185
1.367845,8369,8178,8187
1.379571,8409,8181,8187
1.38862,8447,8181,8185
1.399851,8495,8181,8185
1.407523,8541,8181,8185
1.418485,8584,8181,8182
1.42993,8622,8181,8180
1.438643,8664,8178,8182
1.449541,8691,8178,8180
1.457838,8725,8178,8182
1.466841,8758,8181,8180
1.478453,8785,8178,8185
1.487516,8822,8181,8185
1.499183,8860,8181,8185
1.509818,8885,8181,8182
1.518735,8913,8181,8185
1.529912,8933,8181,8185
1.538953,8946,8178,8185
1.547427,8949,8178,8180
1.559018,8949,8178,8182
1.567757,8954,8178,8180
1.576813,8954,8178,8185
1.590809,8954,8178,8182
1.5964,8952,8178,8182
1.607882,8944,8178,8187
1.619542,8921,8178,8185
1.627118,8863,8178,8195
1.638174,8882,8175,8192
1.64951,8924,8178,8185
1.657479,8954,8178,8185
1.668544,8977,8181,8185
1.677262,8991,8181,8185
1.686208,9002,8181,8182
1.700094,9012,8181,8185
1.708345,9021,8181,8177
1.717009,9030,8181,8177
1.728456,9038,8181,8180
1.736407,9043,8181,8180
1.74758,9047,8178,8182
1.759291,9058,8178,8180
1.768258,9060,8178,8180
1.779983,9060,8178,8182
1.78904,9066,8178,8182
1.797838,9074,8178,8180
1.807046,9077,8178,8180
1.818644,9079,8178,8182
1.827417,9085,8178,8180
1.83921,9090,8175,8180
1.848157,9096,8178,8180
1.859117,9098,8178,8180
1.869822,9104,8181,8180
1.878567,9104,8181,8182
1.886353,9109,8178,8180
1.899313,9113,8178,8180
1.908082,9113,8181,8182
1.919232,9116,8181,8180
1.930241,9116,8178,8177
1.936654,9118,8181,8180
1.947496,9113,8181,8182
1.958138,9118,8181,8180
1.966924,9113,8181,8177
1.978489,9116,8181,8185
1.987325,9118,8181,8185
1.998987,9122,8181,8180
2.009616,9127,8181,8182
2.01608,9130,8181,8180
2.027129,9130,8181,8182
2.036149,9130,8181,8180
2.047417,9135,8181,8182
2.055813,9138,8181,8180
2.066819,9144,8175,8180
2.078295,9144,8178,8180
2.087332,9146,8178,8182
2.098987,9149,8178,8182
2.108075,9152,8175,8180
2.117011,9157,8175,8185
2.126072,9160,8178,8180
2.137725,9160,8178,8185
2.148247,9160,8175,8180
2.157478,9160,8178,8182
2.168447,9160,8175,8182
2.177253,9157,8181,8182
2.188888,9160,8183,8177
2.195316,9160,8183,8180
2.20686,9154,8183,8177
2.218394,9152,8183,8180
2.229854,9154,8183,8182
2.236229,9149,8183,8180
2.247858,9144,8183,8182
2.256526,9144,8183,8180
2.268053,9141,8183,8180
2.276691,9141,8181,8180
2.288397,9138,8181,8185
2.297308,9138,8181,8180
2.308768,9130,8181,8182
2.315208,9130,8181,8185
2.329094,9125,8178,8180
2.337693,9116,8181,8182
2.349189,9113,8181,8182
2.355698,9113,8178,8182
2.36679,9104,8181,8177
2.377312,9104,8181,8182
2.386142,9098,8183,8182
2.397271,9096,8181,8182
2.406212,9090,8181,8182
2.417471,9082,8183,8182
2.42652,9074,8181,8180
2.437729,9066,8183,8182
2.445991,9058,8181,8182
2.457641,9052,8183,8182
2.468934,9043,8183,8180
2.477044,9040,8181,8180
2.485862,9040,8181,8180
2.496367,9035,8181,8185
2.505073,9032,8181,8182
2.516224,9035,8181,8182
2.527072,9027,8181,8182
2.535585,9021,8181,8177
2.545978,9015,8181,8182
2.557624,9018,8181,8180
2.569289,9010,8181,8180
2.575763,9012,8181,8180
2.587211,9012,8181,8182
2.596082,9012,8175,8182
2.60791,9010,8175,8182
2.616679,9007,8178,8180
2.628238,9004,8178,8180
2.637306,9004,8178,8180
2.649968,9002,8175,8180
2.654829,9002,8178,8180
2.668296,8999,8178,8180
2.677334,8991,8178,8185
2.688624,8993,8178,8182
2.694848,8991,8181,8185
2.706058,8991,8181,8187
2.714863,8993,8181,8180
2.728572,8999,8181,8182
2.737651,8993,8181,8180
2.746632,8993,8181,8182
2.755734,8991,8181,8180
2.767485,8993,8181,8182
2.776295,8993,8181,8177
2.787536,8991,8181,8180
2.796295,8991,8181,8180
2.806894,8988,8181,8180
2.815699,8988,8181,8182
2.827119,8988,8181,8180
2.837891,8993,8181,8177
2.845686,8999,8181,8177
2.857337,8999,8181,8174
2.866561,8999,8181,8182
2.878219,8999,8181,8180
2.887247,9002,8178,8174
2.89834,8993,8181,8180
2.904713,8991,8181,8182
2.915461,8988,8181,8180
2.926767,8993,8181,8180
2.935666,8996,8181,8180
2.946452,9004,8181,8185
2.955389,9007,8181,8182
2.967084,9012,8181,8180
2.975873,9021,8181,8182
2.987085,9027,8181,8185
2.99613,9032,8181,8182
3.00781,9035,8181,8177
3.013721,9038,8178,8180
3.027115,9043,8178,8180
3.036037,9047,8178,8180
3.047692,9047,8178,8182
3.056762,9050,8178,8185
3.066573,9052,8178,8180
3.073487,9058,8178,8182
3.084456,9058,8178,8177
3.095767,9060,8178,8182
3.106999,9060,8178,8182
3.118272,9058,8178,8182
3.124295,9058,8178,8180
3.133046,9058,8178,8180
3.146901,9055,8178,8182
3.158435,9043,8178,8182
3.164906,9038,8178,8180
3.176372,9032,8178,8182
3.18543,9024,8178,8180
3.196617,9015,8178,8180
3.205495,9007,8178,8180
3.216867,8993,8178,8185
3.227647,8988,8178,8182
3.237098,8985,8178,8180
3.245581,8977,8178,8177
3.257091,8972,8178,8182
3.266134,8965,8178,8180
3.277405,8960,8178,8182
3.288347,8957,8175,8180
3.29482,8954,8178,8182
3.306492,8954,8178,8180
3.315079,8952,8175,8180
3.326746,8944,8178,8180
3.332864,8941,8175,8182
3.346601,8933,8178,8182
3.354885,8933,8178,8185
3.365952,8924,8178,8180
3.377172,8921,8178,8180
3.386123,8905,8178,8182
3.397557,8897,8178,8182
3.4065,8891,8178,8185
3.415452,8882,8178,8182
3.424483,8879,8181,8180
3.436049,8874,8181,8180
3.444561,8869,8181,8185
3.456037,8863,8181,8180
3.464313,8852,8178,8185
3.476122,8850,8181,8182
3.48489,8841,8181,8180
3.496589,8824,8178,8182
3.505616,8813,8178,8177
3.517321,8788,8181,8177
3.523802,8774,8181,8180
3.537332,8756,8181,8180
3.545639,8745,8181,8177
3.554601,8725,8181,8177
3.565924,8710,8181,8180
3.574932,8699,8181,8174
3.586094,8683,8181,8182
3.595014,8672,8181,8182
3.606567,8656,8181,8180
3.614929,8639,8181,8180
3.624007,8624,8181,8180
3.635404,8611,8178,8180
3.645427,8592,8178,8182
3.653881,8576,8178,8180
3.665372,8562,8175,8180
3.6768,8541,8175,8182
3.685319,8533,8178,8182
3.694006,8519,8178,8180
3.705711,8509,8178,8182
3.714618,8498,8178,8180
3.726285,8484,8178,8180
3.735372,8476,8178,8180
3.746338,8461,8181,8180
3.755393,8447,8181,8180
3.766829,8436,8181,8180
3.77451,8423,8181,8180
3.7857,8409,8181,8180
3.796583,8396,8181,8180
3.805589,8385,8181,8180
3.816621,8369,8181,8177
3.825637,8358,8181,8177
3.837271,8345,8181,8177
3.846328,8329,8175,8177
3.852764,8315,8178,8177
3.865836,8299,8178,8177
3.877246,8283,8178,8177
3.886357,8271,8175,8177
3.895301,8257,8178,8177
3.904303,8214,8178,8182
3.915355,8219,8178,8180
3.924454,8198,8178,8180
3.936172,8177,8178,8182
3.94523,8171,8178,8180
3.956231,8166,8181,8180
3.966458,8152,8183,8180
3.972789,8144,8183,8180
3.986681,8136,8183,8180
3.993203,8125,8183,8180
4.007125,8112,8186,8180
4.016385,8103,8186,8177
4.024724,8094,8186,8180
4.033645,8085,8186,8180
4.044057,8077,8188,8180
4.055169,8069,8191,8180
4.065509,8064,8191,8177
4.073259,8058,8188,8180
4.086379,8053,8191,8180
4.095095,8045,8193,8180
4.103932,8039,8193,8180
4.112945,8039,8191,8180
4.126798,8031,8196,8180
4.135887,8028,8196,8180
4.14713,8023,8199,8180
4.15462,8012,8199,8180
4.163007,8009,8196,8180
4.175135,8009,8196,8180
4.186753,8003,8196,8180
4.192671,8000,8199,8180
4.203723,7995,8201,8180
4.216778,7991,8201,8180
4.223235,8000,8204,8180
4.234865,7986,8201,8180
4.243214,7995,8204,8180
4.254853,7980,8201,8180
4.266289,7975,8199,8180
4.272352,7975,8199,8180
4.281868,7972,8199,8180
4.295076,7970,8204,8180
4.305183,7970,8201,8180
4.315126,7959,8199,8180
4.32521,7959,8204,8177
4.334924,7948,8204,8182
4.344904,7951,8201,8182
4.355115,7948,8209,8180
4.365175,7940,8199,8177
4.375279,7945,8214,8180
4.383316,7948,8209,8180
4.393976,7929,8201,8180
4.40431,7932,8204,8177
4.414946,7932,8204,8180
4.425104,7932,8206,8180
4.432701,7923,8206,8180
4.443038,7940,8201,8182
4.452763,7929,8206,8180
4.463339,7915,8196,8177
4.473825,7918,8214,8180
4.484422,7915,8199,8180
4.494216,7918,8217,8180
4.50455,7915,8214,8177
4.51421,7909,8222,8180
4.524225,7909,8204,8182
4.534138,7912,8212,8182
4.544346,7909,8214,8182
4.554492,7895,8196,8180
4.564088,7895,8209,8182
4.574242,7898,8214,8182
4.58435,7881,8219,8177
4.594653,7884,8217,8180
4.60463,7875,8206,8180
4.614391,7875,8222,8180
4.624255,7873,8212,8180
4.6345,7878,8219,8180
4.644156,7873,8222,8180
4.654988,7867,8227,8180
4.662693,7867,8222,8180
4.672983,7870,8209,8177
4.685221,7859,8232,8182
4.695563,7857,8230,8177
4.701166,7840,8201,8180
4.713628,7840,8237,8180
4.724246,7848,8222,8180
4.734379,7846,8219,8180
4.74456,7843,8227,8180
4.754304,7838,8224,8182
4.764422,7835,8227,8180
4.774232,7848,8224,8182
4.783884,7851,8230,8177
4.791721,7827,8230,8177
4.802253,7829,8224,8182
4.81261,7827,8227,8180
4.82521,7804,8219,8180
4.832694,7796,8230,8180
4.844904,7801,8239,8180
4.852078,7791,8245,8180
4.862503,7791,8230,8180
4.873015,7793,8232,8177
4.883409,7799,8242,8177
4.893338,7779,8239,8180
4.903246,7784,8245,8180
4.913481,7779,8247,8177
4.924368,7779,8245,8180
4.933964,7791,8237,8177
4.94324,7781,8245,8177
4.952856,7781,8242,8180
4.962613,7773,8252,8180
4.972719,7760,8242,8180
4.984883,7757,8242,8177
4.995156,7762,8247,8180
5.002777,7735,8247,8177
5.01233,7726,8268,8182
5.024234,7707,8263,8187
5.034677,7671,8245,8180
5.040167,7660,8247,8180
5.053051,7663,8227,8180
5.063539,7658,8257,8180
5.074134,7655,8276,8180
5.084043,7632,8255,8174
5.093432,7641,8265,8180
5.103397,7627,8270,8174
5.113563,7655,8281,8180
5.121402,7658,8245,8182
5.133653,7627,8268,8180
5.143428,7632,8304,8182
5.153581,7635,8281,8174
5.16376,7639,8268,8174
5.173715,7658,8247,8174
5.181735,7649,8296,8180
5.191876,7641,8270,8185
5.204692,7632,8286,8177
5.212332,7655,8242,8174
5.222408,7641,8245,8182
5.232647,7639,8250,8180
5.242683,7621,8276,8180
5.252726,7649,8304,8180
5.261024,7627,8263,8177
5.271791,7663,8276,8182
5.282941,7641,8227,8185
5.292204,7632,8278,8180
5.302878,7663,8265,8182
5.310527,7639,8308,8182
5.323656,7652,8263,8180
5.33389,7658,8276,8174
5.341956,7655,8257,8180
5.35238,7663,8263,8177
5.362993,7660,8283,8180
5.373107,7674,8265,8180
5.383952,7663,8260,8174
5.394522,7710,8242,8185
5.403462,7688,8247,8182
5.415013,7686,8270,8182
5.423988,7694,8242,8174
5.433064,7682,8237,8177
5.442109,7671,8214,8180
5.453701,7668,8263,8182
5.462721,7686,8255,8177
5.474354,7702,8276,8182
5.483408,7671,8245,8182
5.492362,7676,8263,8182
5.503983,7674,8260,8177
5.512809,7699,8273,8185
5.521821,7721,8260,8180
5.53309,7702,8250,8177
5.54176,7705,8247,8180
5.553371,7699,8252,8177
5.56243,7721,8222,8177
5.574077,7743,8239,8174
5.584737,7741,8245,8182
5.593762,7746,8245,8180
5.602814,7765,8242,8180
5.611832,7776,8239,8180
5.623452,7787,8260,8180
5.634516,7799,8230,8177
5.64097,7796,8237,8180
5.652647,7809,8242,8180
5.662363,7801,8227,8180
5.673845,7815,8217,8180
5.682375,7824,8237,8177
5.69371,7832,8206,8182
5.702668,7840,8250,8177
5.714288,7859,8222,8182
5.72075,7854,8214,8180
5.729416,7867,8227,8180
5.74107,7886,8224,8180
5.752246,7906,8222,8180
5.760926,7921,8217,8180
5.772584,7929,8214,8180
5.781077,7948,8212,8182
5.79135,7953,8209,8180
5.802188,7967,8204,8177
5.813339,7980,8196,8180
5.822401,7991,8206,8180
5.833922,8007,8201,8180
5.84297,8023,8196,8180
5.851274,8039,8186,8180
5.862521,8058,8196,8180
5.87419,8083,8193,8180
5.880496,8112,8183,8180
5.891526,8133,8181,8180
5.899534,8166,8181,8180
5.912665,8195,8178,8182
5.921701,8206,8175,8185
5.932816,8257,8178,8144
5.941171,8310,8178,8190
5.952824,8366,8181,8192
5.961729,8439,8181,8192
5.970789,8506,8181,8192
5.982394,8544,8181,8195
5.991352,8578,8181,8200
6.003015,8639,8181,8200
6.012042,8730,8181,8198
6.023608,8830,8178,8192
6.030084,8905,8181,8187
6.041524,8988,8178,8185
6.053154,9038,8178,8190
6.061244,9077,8181,8187
6.070251,9104,8181,8185
6.081483,9157,8178,8187
6.090532,9192,8181,8187
6.101729,9224,8178,8185
6.110767,9240,8178,8187
6.122418,9257,8181,8185
6.131473,9273,8181,8185
6.14314,9293,8181,8185
6.152184,9302,8178,8190
6.16379,9321,8178,8187
6.173008,9334,8178,8185
6.182174,9345,8178,8185
6.18867,9354,8175,8182
6.20029,9368,8178,8185
6.209315,9381,8178,8180
6.223555,9393,8178,8185
6.232419,9404,8178,8185
6.2415,9410,8178,8185
6.250038,9418,8175,8187
6.261656,9424,8178,8185
6.270451,9432,8178,8187
6.282074,9446,8178,8185
6.293623,9451,8178,8185
6.300085,9457,8178,8185
6.311161,9462,8178,8185
6.320201,9467,8178,8185
6.33186,9470,8178,8185
6.340947,9478,8178,8185
6.352786,9487,8178,8185
6.359292,9490,8181,8185
6.373214,9497,8181,8185
6.382346,9502,8181,8182
6.393727,9507,8181,8182
6.402781,9505,8181,8185
6.411886,9505,8181,8185
6.420561,9505,8181,8180
6.432252,9513,8181,8182
6.443304,9515,8181,8182
6.449766,9518,8181,8182
6.46069,9524,8178,8180
6.471657,9532,8178,8185
6.481922,9537,8178,8185
6.490822,9540,8178,8185
6.501604,9548,8178,8182
6.508648,9553,8178,8185
6.521074,9556,8178,8185
6.531766,9559,8178,8185
6.542052,9561,8178,8185
6.552526,9564,8178,8185
6.560747,9564,8178,8185
6.572195,9570,8181,8185
6.581217,9570,8181,8182
6.590251,9574,8181,8185
6.601176,9580,8181,8182
6.610152,9585,8181,8182
6.620822,9591,8181,8182
6.629888,9596,8181,8185
6.64152,9604,8181,8185
6.650567,9615,8181,8185
6.661985,9620,8181,8185
6.669683,9626,8178,8185
6.681278,9637,8178,8185
6.691463,9639,8175,8185
6.70066,9646,8178,8185
6.711895,9657,8178,8182
6.720173,9659,8178,8182
6.73187,9666,8178,8187
6.741203,9674,8178,8185
6.750267,9679,8178,8185
6.759332,9682,8178,8185
6.770423,9687,8178,8182
6.779434,9693,8178,8182
6.791056,9695,8178,8185
6.800071,9695,8178,8185
6.811586,9698,8178,8182
6.820617,9698,8178,8185
6.829286,9701,8178,8185
6.837832,9695,8178,8185
6.84926,9695,8178,8182
6.862522,9695,8175,8185
6.870611,9695,8178,8182
6.879662,9695,8181,8182
6.89135,9693,8181,8180
6.902014,9690,8181,8185
6.911021,9690,8181,8180
6.920005,9693,8181,8182
6.92876,9695,8178,8182
6.940336,9687,8181,8182
6.949484,9687,8181,8182
6.960809,9682,8181,8182
6.969832,9679,8181,8180
6.981378,9674,8181,8180
6.990395,9671,8178,8182
7.002052,9666,8178,8182
7.008487,9666,8178,8180
7.020141,9659,8175,8180
7.028756,9657,8178,8180
7.042954,9654,8178,8180
7.049452,9651,8178,8180
7.060744,9651,8178,8177
7.069246,9648,8175,8182
7.080606,9646,8178,8180
7.089277,9646,8181,8182
7.100819,9646,8181,8180
7.109902,9643,8181,8182
7.121373,9643,8181,8180
7.129546,9643,8181,8182
7.141251,9643,8178,8182
7.152301,9643,8181,8182
7.158763,9646,8181,8180
7.169876,9643,8181,8182
7.178858,9646,8181,8185
7.190294,9648,8181,8182
7.201185,9651,8178,8182
7.210151,9654,8178,8182
7.221843,9657,8178,8182
7.230532,9666,8178,8185
7.242228,9671,8178,8185
7.251288,9674,8178,8185
7.260272,9677,8175,8182
7.269339,9682,8175,8182
7.280665,9682,8178,8182
7.289745,9685,8178,8185
7.301388,9687,8178,8185
7.310439,9687,8178,8187
7.319484,9693,8178,8182
7.331123,9693,8178,8182
7.340008,9698,8178,8185
7.349045,9698,8178,8182
7.360709,9701,8175,8182
7.369792,9698,8175,8182
7.381462,9698,8178,8185
7.387912,9701,8178,8185
7.401839,9698,8178,8185
7.408166,9695,8178,8182
7.419266,9695,8178,8182
7.427539,9695,8178,8180
7.439015,9687,8178,8182
7.449178,9687,8178,8185
7.459363,9685,8178,8182
7.468534,9682,8178,8180
7.478334,9674,8178,8182
7.48951,9668,8178,8177
7.501259,9662,8178,8180
7.510505,9659,8178,8182
7.518985,9651,8178,8182
7.530093,9643,8178,8182
7.541699,9631,8178,8180
7.55075,9623,8178,8182
7.559829,9618,8175,8180
7.568875,9604,8178,8180
7.579565,9596,8178,8177
7.590699,9582,8178,8180
7.599735,9570,8178,8182
7.61111,9561,8178,8182
7.620193,9551,8178,8180
7.631331,9540,8178,8182
7.637805,9534,8178,8182
7.649081,9532,8178,8180
7.658173,9526,8178,8182
7.67161,9518,8178,8182
7.680272,9510,8178,8182
7.687847,9507,8178,8180
7.698858,9502,8178,8180
7.709976,9499,8178,8180
7.718976,9490,8181,8180
7.730267,9487,8181,8182
7.738701,9487,8181,8182
7.750303,9482,8181,8180
7.759384,9476,8181,8182
7.768339,9476,8181,8182
7.780023,9473,8181,8180
7.788922,9467,8181,8177
7.800583,9462,8181,8182
7.809627,9457,8181,8180
7.820853,9457,8181,8180
7.829914,9448,8181,8180
7.841458,9446,8181,8180
7.847916,9446,8178,8182
7.859537,9438,8181,8180
7.868328,9435,8181,8182
7.880006,9430,8178,8182
7.888501,9427,8181,8180
7.897045,9424,8181,8180
7.908208,9420,8181,8182
7.919314,9410,8181,8177
7.930449,9404,8181,8180
7.939485,9396,8181,8180
7.948376,9384,8181,8182
7.960025,9373,8181,8182
7.968732,9363,8181,8180
7.980361,9354,8181,8180
