Time [s],Gauge Pressure [cmH2O],Inspiratory differenrtial pressure [cmH2O],Expiratory differenrtial pressure [cmH2O]
0,7.28430547581831,-0.15019186548079,-0.19310382704673
0.00314099999999939,6.47970619645693,-0.118007894306335,-0.10727990391485
0.0070130000000006,5.83602677296783,-0.118007894306335,-0.160919855872275
0.0244409999999995,5.14943538791279,-0.15019186548079,-0.160919855872275
0.0315639999999995,4.46284400285775,-0.118007894306335,-0.160919855872275
0.0328039999999987,3.74406864662826,-0.118007894306335,-0.12873588469782
0.0389070000000018,3.28276505979441,-0.0965519135233649,-0.12873588469782
0.0504010000000008,2.7892775017861,-0.118007894306335,-0.12873588469782
0.059550999999999,2.47816578043303,-0.0965519135233649,-0.10727990391485
0.071118000000002,2.27433396299482,-0.0643679423489099,-0.12873588469782
0.0800809999999998,2.0705021455566,-0.0429119615659399,-0.160919855872275
0.0916350000000001,1.84521434733542,-0.010727990391485,-0.10727990391485
0.0980419999999995,1.60919855872275,0.010727990391485,-0.12873588469782
0.109556999999999,1.37318277011008,0.0429119615659399,-0.12873588469782
0.117775000000002,1.23371889502077,0.0965519135233649,-0.12873588469782
0.129360999999999,0.997703106408104,0.12873588469782,-0.12873588469782
0.139275999999999,0.933335164059194,0.15019186548079,-0.160919855872275
0.147734,0.697319375446524,0.2145598078297,-0.12873588469782
0.158740999999999,0.493487558008309,0.2145598078297,-0.160919855872275
0.16985,0.407663634876429,0.289655740570095,-0.160919855872275
0.178753,0.493487558008309,0.32183971174455,-0.12873588469782
0.190261,0.289655740570095,0.34329569252752,-0.12873588469782
0.198246000000001,0.032183971174455,0.375479663701974,-0.160919855872275
0.208803,0.0858239231318799,0.429119615659399,-0.19310382704673
0.220245000000002,-0.10727990391485,0.429119615659399,-0.19310382704673
0.228631,-0.36475167331049,0.482759567616824,-0.12873588469782
0.237501999999999,-0.396935644484945,0.536399519574249,-0.12873588469782
0.251213,-0.718775356229494,0.568583490748704,-0.10727990391485
0.259281999999999,-0.686591385055039,0.590039471531674,-0.12873588469782
0.268108000000002,-1.01915908719107,0.622223442706129,-0.12873588469782
0.279743,-0.976247125625134,0.675863394663554,-0.160919855872275
0.288555000000002,-1.20153492384632,0.622223442706129,-0.12873588469782
0.300118000000001,-1.16935095267186,0.675863394663554,-0.12873588469782
0.309079000000001,-1.26590286619523,0.697319375446524,-0.0750959327403949
0.320677,-1.31954281815265,0.761687317795434,-0.19310382704673
0.329644000000002,-1.2873588469782,0.729503346620979,-0.19310382704673
0.341232999999999,-1.57701458754829,0.815327269752859,-0.160919855872275
0.350200000000001,-1.55555860676532,0.815327269752859,-0.10727990391485
0.359242000000002,-1.55555860676532,0.868967221710284,-0.0750959327403949
0.368198,-1.75939042420354,0.901151192884739,-0.12873588469782
0.379759,-1.43755071245899,0.868967221710284,-0.160919855872275
0.388726000000002,-1.75939042420354,0.922607173667709,-0.0750959327403949
0.400314999999999,-1.81303037616096,0.922607173667709,-0.0750959327403949
0.409317999999999,-1.98467822242472,0.976247125625134,-0.10727990391485
0.420970000000001,-1.86667032811839,1.00843109679959,-0.160919855872275
0.429940999999999,-1.86667032811839,1.02988707758256,-0.160919855872275
0.438625999999999,-1.86667032811839,1.00843109679959,-0.12873588469782
0.447587000000002,-1.96322224164175,1.02988707758256,-0.12873588469782
0.458888000000002,-2.08123013594809,0.976247125625134,-0.19310382704673
0.467876,-1.72720645302908,1.02988707758256,-0.10727990391485
0.479499000000001,-2.02759018399066,1.11571100071444,-0.10727990391485
0.487667000000002,-1.96322224164175,1.02988707758256,-0.160919855872275
0.499198,-2.20996602064591,1.02988707758256,-0.0750959327403949
0.510781999999999,-2.29578994377779,1.16935095267186,-0.19310382704673
0.51886,-2.24214999182036,1.14789497188889,-0.19310382704673
0.527797,-2.44598180925858,1.11571100071444,-0.160919855872275
0.535938999999999,-2.02759018399066,1.09425501993147,-0.160919855872275
0.547528,-2.27433396299482,1.20153492384632,-0.19310382704673
0.561184000000001,-2.27433396299482,1.14789497188889,-0.19310382704673
0.567618,-2.24214999182036,1.20153492384632,-0.12873588469782
0.578762000000001,-2.24214999182036,1.24444688541226,-0.10727990391485
0.587724999999999,-2.29578994377779,1.14789497188889,-0.12873588469782
0.599333999999999,-1.98467822242472,1.16935095267186,-0.12873588469782
0.607458000000001,-2.44598180925858,1.14789497188889,-0.0750959327403949
0.619588,-2.20996602064591,1.20153492384632,-0.160919855872275
0.628395000000001,-2.32797391495224,1.24444688541226,-0.12873588469782
0.639593999999999,-2.47816578043303,1.09425501993147,-0.0536399519574249
0.650812999999999,-2.05977415516512,1.24444688541226,-0.10727990391485
0.657232,-2.27433396299482,1.24444688541226,-0.160919855872275
0.668804000000002,-2.38161386690967,1.20153492384632,-0.160919855872275
0.677783000000002,-2.20996602064591,1.20153492384632,-0.160919855872275
0.689333999999999,-2.32797391495224,1.24444688541226,-0.160919855872275
0.697854,-2.47816578043303,1.20153492384632,-0.10727990391485
0.706835999999999,-2.44598180925858,1.24444688541226,-0.0750959327403949
0.720539000000002,-2.27433396299482,1.16935095267186,-0.10727990391485
0.726967000000002,-2.27433396299482,1.24444688541226,-0.12873588469782
0.738531999999999,-2.41379783808412,1.24444688541226,-0.10727990391485
0.747492000000001,-2.02759018399066,1.20153492384632,-0.19310382704673
0.758811999999999,-2.44598180925858,1.24444688541226,-0.2145598078297
0.767786000000001,-2.24214999182036,1.16935095267186,-0.12873588469782
0.779281000000001,-2.68199759787125,1.24444688541226,-0.160919855872275
0.787449000000002,-2.27433396299482,1.14789497188889,-0.12873588469782
0.798983,-2.3601578861267,1.20153492384632,-0.0750959327403949
0.810617000000001,-2.53180573239046,1.20153492384632,-0.12873588469782
0.817,-2.18851003986294,1.26590286619523,-0.160919855872275
0.828564,-2.47816578043303,1.24444688541226,-0.12873588469782
0.837562999999999,-2.53180573239046,1.26590286619523,-0.10727990391485
0.849119999999999,-2.41379783808412,1.24444688541226,-0.0750959327403949
0.858028000000001,-2.61762965552234,1.24444688541226,-0.12873588469782
0.869572999999999,-2.85364544413501,1.26590286619523,-0.12873588469782
0.878525,-2.7892775017861,1.24444688541226,-0.160919855872275
0.890094000000001,-2.44598180925858,1.29808683736968,-0.10727990391485
0.899065,-1.96322224164175,1.24444688541226,-0.0750959327403949
0.908037,-2.56398970356491,1.24444688541226,-0.160919855872275
0.917074,-2.58544568434788,1.24444688541226,-0.19310382704673
0.928570000000001,-2.44598180925858,1.24444688541226,-0.12873588469782
0.937529000000001,-2.38161386690967,1.26590286619523,-0.0750959327403949
0.949042000000002,-2.11341410712254,1.24444688541226,-0.160919855872275
0.957491000000001,-2.47816578043303,1.24444688541226,-0.12873588469782
0.993624000000001,-2.3601578861267,1.29808683736968,-0.12873588469782
0.996175000000001,-2.499621761216,1.29808683736968,-0.10727990391485
0.997422,-2.47816578043303,1.24444688541226,-0.12873588469782
0.99785,-2.64981362669679,1.29808683736968,-0.160919855872275
1.010506,-2.64981362669679,1.26590286619523,-0.19310382704673
1.01853,-2.24214999182036,1.24444688541226,-0.12873588469782
1.029937,-2.76782152100313,1.29808683736968,-0.19310382704673
1.036127,-2.61762965552234,1.29808683736968,-0.160919855872275
1.050002,-2.15632606868848,1.24444688541226,-0.12873588469782
1.059022,-2.44598180925858,1.26590286619523,-0.19310382704673
1.070267,-2.47816578043303,1.24444688541226,-0.19310382704673
1.076192,-2.44598180925858,1.26590286619523,-0.246743779004155
1.089457,-2.24214999182036,1.24444688541226,-0.2145598078297
1.098148,-1.98467822242472,1.24444688541226,-0.10727990391485
1.109322,-2.11341410712254,1.16935095267186,-0.12873588469782
1.123007,-1.98467822242472,1.16935095267186,-0.19310382704673
1.126818,-1.75939042420354,1.24444688541226,-0.19310382704673
1.137554,-1.9310382704673,1.14789497188889,-0.12873588469782
1.1491,-1.75939042420354,1.06207104875701,-0.19310382704673
1.160358,-1.69502248185463,1.09425501993147,-0.0750959327403949
1.171834,-1.75939042420354,1.06207104875701,-0.19310382704673
1.178305,-1.43755071245899,1.02988707758256,-0.19310382704673
1.188976,-1.35172678932711,1.06207104875701,-0.2145598078297
1.197531,-1.0727990391485,1.02988707758256,-0.19310382704673
1.206575,-1.14789497188889,1.00843109679959,-0.2145598078297
1.217167,-0.922607173667709,1.06207104875701,-0.268199759787125
1.228582,-1.01915908719107,0.901151192884739,-0.160919855872275
1.237548,-1.14789497188889,0.901151192884739,-0.19310382704673
1.253988,-0.718775356229494,0.901151192884739,-0.12873588469782
1.255894,-0.750959327403949,0.901151192884739,-0.160919855872275
1.269063,-0.858239231318799,0.901151192884739,-0.12873588469782
1.27812,-0.36475167331049,0.815327269752859,-0.0750959327403949
1.289712,-0.654407413880584,0.761687317795434,-0.0750959327403949
1.295631,-0.568583490748704,0.783143298578404,-0.160919855872275
1.307167,-0.311111721353065,0.729503346620979,-0.12873588469782
1.318162,-0.225287798221185,0.697319375446524,-0.12873588469782
1.327158,-0.19310382704673,0.697319375446524,-0.10727990391485
1.338775,-0.160919855872275,0.675863394663554,-0.12873588469782
1.346427,0.289655740570095,0.643679423489099,-0.12873588469782
1.357979,0.354023682919005,0.643679423489099,-0.10727990391485
1.369558,0.525671529182764,0.590039471531674,-0.10727990391485
1.375989,0.761687317795434,0.536399519574249,-0.10727990391485
1.384794,0.868967221710284,0.482759567616824,-0.10727990391485
1.396193,1.26590286619523,0.482759567616824,-0.0750959327403949
1.407538,1.49119066441641,0.407663634876429,-0.0750959327403949
1.416367,1.81303037616096,0.34329569252752,-0.0750959327403949
1.424189,2.15632606868848,0.289655740570095,-0.0750959327403949
1.43817,2.64981362669679,0.23601578861267,-0.0750959327403949
1.449538,3.10038922313916,0.15019186548079,-0.02145598078297
1.45766,3.71188467545381,0.0750959327403949,-0.0536399519574249
1.466447,4.29119615659399,-0.010727990391485,-0.12873588469782
1.477346,4.66667582029597,-0.0965519135233649,-0.12873588469782
1.488432,5.00997151282349,-0.118007894306335,-0.12873588469782
1.497184,5.26744328221913,-0.182375836655245,-0.10727990391485
1.50619,5.35326720535101,-0.182375836655245,-0.12873588469782
1.514797,5.43909112848289,-0.182375836655245,-0.12873588469782
1.526016,6.86591385055039,-0.0429119615659399,-0.12873588469782
1.539565,6.27587437901872,-0.15019186548079,-0.12873588469782
1.545958,6.42606624449951,-0.182375836655245,-0.10727990391485
1.557528,6.64062605232921,-0.15019186548079,-0.12873588469782
1.566304,6.94100978329079,-0.15019186548079,-0.10727990391485
1.577836,7.16629758151197,-0.15019186548079,-0.12873588469782
1.589062,7.4344973412991,-0.182375836655245,-0.12873588469782
1.595181,7.61687317795434,-0.182375836655245,-0.10727990391485
1.609263,7.85288896656701,-0.182375836655245,-0.10727990391485
1.618247,8.12108872635413,-0.15019186548079,-0.12873588469782
1.629711,8.42147245731571,-0.15019186548079,-0.10727990391485
1.636084,8.74331216906026,-0.15019186548079,-0.10727990391485
1.647623,9.22607173667709,-0.15019186548079,-0.10727990391485
1.657993,9.75174326585985,-0.182375836655245,-0.10727990391485
1.668901,10.2130468526937,-0.15019186548079,-0.0536399519574249
1.675305,10.6207104875701,-0.182375836655245,-0.0750959327403949
1.68636,11.0712860840125,-0.182375836655245,-0.02145598078297
1.695247,11.4253097669315,-0.182375836655245,-0.02145598078297
1.709383,11.9080693345483,-0.182375836655245,-0.0536399519574249
1.71591,12.1977250751184,-0.15019186548079,-0.0536399519574249
1.727543,12.5839327292119,-0.15019186548079,-0.02145598078297
1.735884,12.9486844025224,-0.118007894306335,-0.0536399519574249
1.747175,13.3027080854414,-0.118007894306335,0
1.756207,13.6781877491434,-0.15019186548079,0
1.767053,13.9678434897135,-0.118007894306335,0
1.776055,14.3755071245899,-0.118007894306335,0
1.787576,14.7188028171174,-0.15019186548079,0
1.796595,15.0299145384705,-0.118007894306335,0
1.808135,15.351754250215,-0.15019186548079,0
1.817102,15.6843219523511,-0.118007894306335,0.032183971174455
1.828593,15.9847056833126,-0.118007894306335,0.0643679423489099
1.837518,16.2850894142742,-0.118007894306335,0.032183971174455
1.848438,16.5211052028869,-0.15019186548079,0
1.857403,16.6927530491506,-0.15019186548079,-0.02145598078297
1.868968,16.8214889338485,-0.15019186548079,-0.02145598078297
1.875363,16.9394968281548,-0.182375836655245,0
1.886742,17.0360487416782,-0.15019186548079,0
1.897801,17.1755126167675,-0.15019186548079,0
1.908472,17.2076965879419,-0.15019186548079,0
1.917597,17.2935205110738,-0.15019186548079,0
1.926256,17.3257044822483,-0.182375836655245,-0.02145598078297
1.935199,17.3471604630312,-0.15019186548079,-0.02145598078297
1.94578,17.3257044822483,-0.15019186548079,-0.02145598078297
1.9554,17.3257044822483,-0.15019186548079,-0.0536399519574249
1.965512,17.3471604630312,-0.15019186548079,0
1.975873,17.3471604630312,-0.15019186548079,-0.0536399519574249
1.986479,17.3793444342057,-0.182375836655245,-0.0536399519574249
1.997498,17.4437123765546,-0.182375836655245,-0.0536399519574249
2.005772,17.4437123765546,-0.15019186548079,-0.0536399519574249
2.01421,17.4651683573376,-0.15019186548079,-0.0536399519574249
2.025992,17.497352328512,-0.15019186548079,-0.02145598078297
2.036132,17.497352328512,-0.15019186548079,-0.02145598078297
2.045722,17.497352328512,-0.15019186548079,-0.0536399519574249
2.054027,17.5509922804694,-0.182375836655245,-0.0750959327403949
2.065272,17.5509922804694,-0.182375836655245,-0.0750959327403949
2.077865,17.5831762516439,-0.15019186548079,-0.0536399519574249
2.087329,17.5831762516439,-0.15019186548079,-0.0750959327403949
2.094516,17.5831762516439,-0.182375836655245,-0.0750959327403949
2.104778,17.5831762516439,-0.182375836655245,-0.0750959327403949
2.116901,17.5509922804694,-0.15019186548079,-0.0536399519574249
2.124525,17.5831762516439,-0.15019186548079,-0.0750959327403949
2.136724,17.6475441939928,-0.15019186548079,-0.0750959327403949
2.147273,17.6475441939928,-0.182375836655245,-0.0750959327403949
2.154772,17.6153602228183,-0.15019186548079,-0.0750959327403949
2.1655,17.6690001747758,-0.15019186548079,-0.0536399519574249
2.176556,17.7011841459502,-0.15019186548079,-0.0750959327403949
2.184903,17.7333681171247,-0.15019186548079,-0.0750959327403949
2.195367,17.7011841459502,-0.15019186548079,-0.0750959327403949
2.236648,17.7333681171247,-0.182375836655245,-0.0536399519574249
2.238095,17.7548240979077,-0.15019186548079,-0.0536399519574249
2.240228,17.8406480210395,-0.15019186548079,-0.0750959327403949
2.240751,17.872831992214,-0.15019186548079,-0.0536399519574249
2.246318,17.9264719441714,-0.15019186548079,-0.0536399519574249
2.254133,17.894287972997,-0.15019186548079,-0.02145598078297
2.268319,17.9586559153459,-0.15019186548079,-0.0750959327403949
2.27636,18.0444798384777,-0.182375836655245,-0.0536399519574249
2.285331,17.9801118961288,-0.15019186548079,-0.0536399519574249
2.296931,18.0444798384777,-0.15019186548079,-0.02145598078297
2.305862,18.0659358192607,-0.182375836655245,-0.0536399519574249
2.314807,18.0981197904352,-0.15019186548079,-0.0750959327403949
2.326349,18.0659358192607,-0.15019186548079,-0.0536399519574249
2.337894,18.0981197904352,-0.15019186548079,-0.0536399519574249
2.346582,18.0981197904352,-0.15019186548079,-0.0536399519574249
2.355228,18.0981197904352,-0.15019186548079,-0.0750959327403949
2.366808,18.0981197904352,-0.15019186548079,-0.0536399519574249
2.377986,18.0981197904352,-0.15019186548079,-0.0750959327403949
2.386952,18.0659358192607,-0.15019186548079,-0.0536399519574249
2.398061,18.0659358192607,-0.15019186548079,-0.0536399519574249
2.404443,18.0659358192607,-0.15019186548079,-0.0536399519574249
2.4154,18.0659358192607,-0.182375836655245,-0.0536399519574249
2.426943,18.0981197904352,-0.15019186548079,-0.0536399519574249
2.438338,18.1303037616096,-0.182375836655245,-0.0750959327403949
2.444718,18.1624877327841,-0.15019186548079,-0.0750959327403949
2.455889,18.1839437135671,-0.15019186548079,-0.0750959327403949
2.467013,18.1839437135671,-0.15019186548079,-0.0750959327403949
2.475975,18.2161276847415,-0.118007894306335,-0.0750959327403949
2.483664,18.2161276847415,-0.15019186548079,-0.0750959327403949
2.497693,18.248311655916,-0.118007894306335,-0.0750959327403949
2.504098,18.248311655916,-0.118007894306335,-0.0750959327403949
2.517653,18.248311655916,-0.118007894306335,-0.0750959327403949
2.524027,18.248311655916,-0.15019186548079,-0.10727990391485
2.535071,18.2161276847415,-0.118007894306335,-0.0750959327403949
2.546392,18.2161276847415,-0.118007894306335,-0.0750959327403949
2.555361,18.2161276847415,-0.118007894306335,-0.0750959327403949
2.566875,18.1839437135671,-0.118007894306335,-0.10727990391485
2.575883,18.1839437135671,-0.15019186548079,-0.10727990391485
2.586721,18.248311655916,-0.15019186548079,-0.0536399519574249
2.594801,18.248311655916,-0.15019186548079,-0.0750959327403949
2.605282,18.2161276847415,-0.15019186548079,-0.0750959327403949
2.614303,18.1839437135671,-0.15019186548079,-0.10727990391485
2.625922,18.1624877327841,-0.15019186548079,-0.10727990391485
2.634907,18.1303037616096,-0.15019186548079,-0.10727990391485
2.646504,18.0659358192607,-0.15019186548079,-0.10727990391485
2.655422,18.0659358192607,-0.15019186548079,-0.10727990391485
2.666503,18.0659358192607,-0.15019186548079,-0.0750959327403949
2.675493,18.0122958673033,-0.15019186548079,-0.0750959327403949
2.687077,18.0122958673033,-0.182375836655245,-0.0750959327403949
2.69348,17.9586559153459,-0.15019186548079,-0.0750959327403949
2.705027,17.9264719441714,-0.15019186548079,-0.10727990391485
2.713993,17.8084640498651,-0.15019186548079,-0.10727990391485
2.725527,17.7333681171247,-0.15019186548079,-0.10727990391485
2.734485,17.6475441939928,-0.15019186548079,-0.10727990391485
2.74602,17.3471604630312,-0.15019186548079,-0.10727990391485
2.756737,16.9716807993292,-0.15019186548079,-0.12873588469782
2.76662,13.9678434897135,-0.182375836655245,-0.2145598078297
2.77784,12.0475332096376,-0.182375836655245,-0.12873588469782
2.784263,12.165541103944,-0.118007894306335,-0.10727990391485
2.795572,12.8843164601735,-0.118007894306335,-0.12873588469782
2.804568,13.9678434897135,-0.118007894306335,-0.10727990391485
2.816222,15.1157384616023,-0.15019186548079,-0.12873588469782
2.824737,16.1563535295764,-0.118007894306335,-0.12873588469782
2.833744,16.6927530491506,-0.15019186548079,-0.10727990391485
2.847472,16.7785769722825,-0.118007894306335,-0.10727990391485
2.853848,16.7463930011081,-0.118007894306335,-0.10727990391485
2.865282,16.3172733854487,-0.118007894306335,-0.12873588469782
2.874244,15.8130578370489,-0.118007894306335,-0.12873588469782
2.885778,14.4935150188962,-0.118007894306335,-0.12873588469782
2.896842,12.8199485178246,-0.15019186548079,-0.12873588469782
2.90288,11.103470055187,-0.118007894306335,-0.12873588469782
2.914125,9.66591934272797,-0.15019186548079,-0.10727990391485
2.925712,8.23909662066047,-0.15019186548079,-0.12873588469782
2.93747,6.78008992741851,-0.118007894306335,-0.12873588469782
2.946555,5.55709902278922,-0.118007894306335,-0.12873588469782
2.955177,4.75249974342785,-0.118007894306335,-0.10727990391485
2.965828,4.08736433915578,-0.118007894306335,-0.12873588469782
2.974688,3.79770859858569,-0.118007894306335,-0.12873588469782
2.985791,3.90498850250053,-0.118007894306335,-0.12873588469782
2.994754,3.9264444832835,-0.182375836655245,-0.12873588469782
3.006302,3.82989256976014,-0.15019186548079,-0.160919855872275
3.014241,3.87280453132608,-0.15019186548079,-0.12873588469782
3.025776,3.87280453132608,-0.15019186548079,-0.160919855872275
3.03741,3.9264444832835,-0.15019186548079,-0.160919855872275
3.043786,4.05518036798132,-0.15019186548079,-0.12873588469782
3.055327,4.20537223346211,-0.15019186548079,-0.160919855872275
