Time [s],Gauge Pressure [cmH2O],Inspiratory differenrtial pressure [cmH2O],Expiratory differenrtial pressure [cmH2O]
0,15.6843219523511,-0.118007894306335,-0.12873588469782
0.0243360000000052,15.5663140580447,-0.15019186548079,-0.160919855872275
0.0295520000000025,15.4697621445214,-0.118007894306335,-0.12873588469782
0.0314010000000025,15.351754250215,-0.118007894306335,-0.10727990391485
0.0364059999999995,15.2981142982576,-0.118007894306335,-0.12873588469782
0.0429670000000044,15.2122903751257,-0.15019186548079,-0.12873588469782
0.0532830000000004,15.1157384616023,-0.15019186548079,-0.12873588469782
0.0646830000000023,15.0299145384705,-0.15019186548079,-0.160919855872275
0.0754570000000001,14.9440906153386,-0.15019186548079,-0.19310382704673
0.0844060000000013,14.7831707594663,-0.15019186548079,-0.160919855872275
0.0955849999999998,14.66516286516,-0.15019186548079,-0.12873588469782
0.104685000000003,14.5793389420281,-0.15019186548079,-0.12873588469782
0.113764000000003,14.4291470765473,-0.15019186548079,-0.12873588469782
0.122786000000005,14.311139182241,-0.15019186548079,-0.160919855872275
0.134236000000001,14.1931312879346,-0.15019186548079,-0.12873588469782
0.143104000000001,14.0000274608879,-0.118007894306335,-0.12873588469782
0.154057000000002,13.0345083256543,-0.118007894306335,-0.12873588469782
0.163527999999999,11.9402533057228,-0.118007894306335,-0.10727990391485
0.171614000000005,10.5027025932638,-0.118007894306335,-0.12873588469782
0.181836000000004,9.17243178471966,-0.15019186548079,-0.12873588469782
0.195105000000005,7.98162485126483,-0.118007894306335,-0.12873588469782
0.204751000000002,7.67051312991177,-0.118007894306335,-0.12873588469782
0.214205,7.87434494734998,-0.118007894306335,-0.12873588469782
0.224653000000004,7.7885210242181,-0.118007894306335,-0.12873588469782
0.233462000000003,7.82070499539256,-0.118007894306335,-0.12873588469782
0.244122000000004,7.82070499539256,-0.15019186548079,-0.12873588469782
0.255051000000002,7.73488107226068,-0.15019186548079,-0.12873588469782
0.263218000000002,7.82070499539256,-0.15019186548079,-0.12873588469782
0.274591000000001,7.85288896656701,-0.15019186548079,-0.12873588469782
0.283643000000005,7.85288896656701,-0.15019186548079,-0.12873588469782
0.29269,7.76706504343513,-0.15019186548079,-0.12873588469782
0.304204000000006,7.76706504343513,-0.15019186548079,-0.12873588469782
0.313139,7.7885210242181,-0.15019186548079,-0.12873588469782
0.324838,7.82070499539256,-0.15019186548079,-0.12873588469782
0.333809000000002,7.85288896656701,-0.15019186548079,-0.12873588469782
0.344293,7.85288896656701,-0.15019186548079,-0.12873588469782
0.354733000000003,7.76706504343513,-0.0965519135233649,-0.12873588469782
0.362940999999999,7.76706504343513,-0.118007894306335,-0.12873588469782
0.374637,7.70269710108622,-0.0965519135233649,-0.10727990391485
0.383739000000006,7.76706504343513,-0.0965519135233649,-0.12873588469782
0.395217000000002,7.7885210242181,-0.0965519135233649,-0.10727990391485
0.403223000000004,7.85288896656701,-0.0965519135233649,-0.12873588469782
0.412202000000001,7.85288896656701,-0.118007894306335,-0.10727990391485
0.423867000000001,7.82070499539256,-0.0965519135233649,-0.10727990391485
0.432062999999999,7.82070499539256,-0.0965519135233649,-0.12873588469782
0.443499000000003,7.82070499539256,-0.118007894306335,-0.12873588469782
0.453492000000004,7.76706504343513,-0.0965519135233649,-0.12873588469782
0.462451999999999,7.76706504343513,-0.182375836655245,-0.12873588469782
0.473860999999999,7.82070499539256,-0.15019186548079,-0.12873588469782
0.482314000000002,7.82070499539256,-0.15019186548079,-0.12873588469782
0.493312000000003,7.76706504343513,-0.15019186548079,-0.12873588469782
0.501910000000002,7.53104925482246,-0.15019186548079,-0.10727990391485
0.512966000000006,7.37012939895019,-0.15019186548079,-0.160919855872275
0.524643000000005,7.31648944699276,-0.15019186548079,-0.10727990391485
0.5336,7.31648944699276,-0.118007894306335,-0.0750959327403949
0.542802000000002,7.40231337012464,-0.118007894306335,-0.12873588469782
0.551848,7.37012939895019,-0.118007894306335,-0.12873588469782
0.565045000000005,7.498865283648,-0.182375836655245,-0.10727990391485
0.574627,7.47740930286504,-0.118007894306335,-0.12873588469782
0.583429000000002,7.53104925482246,-0.15019186548079,-0.10727990391485
0.592426000000003,7.56323322599691,-0.15019186548079,-0.10727990391485
0.604063000000004,7.56323322599691,-0.15019186548079,-0.10727990391485
0.613104,7.56323322599691,-0.15019186548079,-0.0750959327403949
0.624746000000002,7.58468920677988,-0.15019186548079,-0.0750959327403949
0.633850000000002,7.56323322599691,-0.118007894306335,-0.12873588469782
0.642864000000003,7.56323322599691,-0.15019186548079,-0.10727990391485
0.650586000000004,7.56323322599691,-0.15019186548079,-0.12873588469782
0.664795000000005,7.58468920677988,-0.15019186548079,-0.12873588469782
0.673253000000003,7.56323322599691,-0.15019186548079,-0.12873588469782
0.681330000000003,7.56323322599691,-0.118007894306335,-0.10727990391485
0.692337000000002,7.56323322599691,-0.118007894306335,-0.10727990391485
0.703278000000005,7.56323322599691,-0.118007894306335,-0.160919855872275
0.711403000000004,7.56323322599691,-0.118007894306335,-0.10727990391485
0.722970000000004,7.56323322599691,-0.118007894306335,-0.10727990391485
0.734252000000005,7.56323322599691,-0.118007894306335,-0.12873588469782
0.744614000000006,7.56323322599691,-0.118007894306335,-0.12873588469782
0.750700000000002,7.56323322599691,-0.118007894306335,-0.160919855872275
0.764959000000005,7.53104925482246,-0.118007894306335,-0.12873588469782
0.773989,7.58468920677988,-0.0965519135233649,-0.12873588469782
0.784368000000001,7.498865283648,-0.118007894306335,-0.12873588469782
0.790424000000002,7.53104925482246,-0.118007894306335,-0.12873588469782
0.804214000000002,7.61687317795434,-0.118007894306335,-0.12873588469782
0.813082999999999,7.37012939895019,-0.118007894306335,-0.160919855872275
0.824327000000004,7.34867341816722,-0.118007894306335,-0.160919855872275
0.833338000000005,7.16629758151197,-0.0965519135233649,-0.160919855872275
0.842343,6.94100978329079,-0.0643679423489099,-0.12873588469782
0.851129,6.90882581211633,-0.0643679423489099,-0.160919855872275
0.865105,6.78008992741851,-0.0643679423489099,-0.12873588469782
0.871310000000001,6.69426600428663,-0.0643679423489099,-0.10727990391485
0.879614000000004,6.51189016763139,-0.0965519135233649,-0.160919855872275
0.890877000000003,6.22223442706129,-0.010727990391485,-0.160919855872275
0.902293,5.9325786864912,-0.0643679423489099,-0.12873588469782
0.913746000000003,5.58928299396368,0.010727990391485,-0.12873588469782
0.922726000000004,5.41763514769992,0.0429119615659399,-0.12873588469782
0.931697,5.14943538791279,0.0750959327403949,-0.10727990391485
0.943257000000003,5.09579543595537,0.0965519135233649,-0.10727990391485
0.95364,5.03142749360646,0.15019186548079,-0.10727990391485
0.963884,4.94560357047458,0.182375836655245,-0.10727990391485
0.974346000000004,4.94560357047458,0.182375836655245,-0.10727990391485
0.980260000000001,4.94560357047458,0.2145598078297,-0.12873588469782
0.992004999999999,4.91341959930012,0.23601578861267,-0.12873588469782
1.00304300000001,4.94560357047458,0.23601578861267,-0.10727990391485
1.011443,4.94560357047458,0.268199759787125,-0.10727990391485
1.021929,4.72031577225339,0.268199759787125,-0.0750959327403949
1.033126,4.72031577225339,0.23601578861267,-0.12873588469782
1.044781,4.94560357047458,0.289655740570095,-0.160919855872275
1.050788,4.84905165695121,0.289655740570095,-0.160919855872275
1.062448,4.94560357047458,0.268199759787125,-0.12873588469782
1.073671,5.09579543595537,0.289655740570095,-0.12873588469782
1.082339,5.09579543595537,0.268199759787125,-0.12873588469782
1.091444,4.79541170499379,0.268199759787125,-0.12873588469782
1.099738,4.94560357047458,0.289655740570095,-0.12873588469782
1.111167,4.88123562812567,0.289655740570095,-0.160919855872275
1.12218,4.97778754164903,0.268199759787125,-0.12873588469782
1.13070800000001,4.72031577225339,0.289655740570095,-0.10727990391485
1.141815,4.75249974342785,0.289655740570095,-0.10727990391485
1.152465,4.82759567616824,0.289655740570095,-0.160919855872275
1.163604,4.82759567616824,0.289655740570095,-0.19310382704673
1.17204,4.82759567616824,0.32183971174455,-0.12873588469782
1.183198,4.79541170499379,0.34329569252752,-0.19310382704673
1.19228,4.58085189716409,0.34329569252752,-0.19310382704673
1.203304,4.66667582029597,0.32183971174455,-0.160919855872275
1.213931,4.66667582029597,0.34329569252752,-0.12873588469782
1.219638,4.69885979147042,0.375479663701974,-0.10727990391485
1.233017,4.58085189716409,0.34329569252752,-0.160919855872275
1.244011,4.72031577225339,0.34329569252752,-0.160919855872275
1.253031,4.75249974342785,0.34329569252752,-0.10727990391485
1.262023,4.75249974342785,0.32183971174455,-0.10727990391485
1.271059,4.66667582029597,0.34329569252752,-0.12873588469782
1.282069,4.72031577225339,0.375479663701974,-0.12873588469782
1.29106,4.72031577225339,0.32183971174455,-0.12873588469782
1.302652,4.69885979147042,0.32183971174455,-0.12873588469782
1.31093300000001,4.72031577225339,0.34329569252752,-0.10727990391485
1.32226900000001,4.79541170499379,0.32183971174455,-0.160919855872275
1.333626,4.58085189716409,0.32183971174455,-0.12873588469782
1.342689,4.61303586833854,0.32183971174455,-0.10727990391485
1.353777,4.63449184912151,0.34329569252752,-0.10727990391485
1.362878,4.72031577225339,0.34329569252752,-0.160919855872275
1.374186,4.61303586833854,0.32183971174455,-0.12873588469782
1.38331,4.69885979147042,0.32183971174455,-0.12873588469782
1.392349,4.88123562812567,0.32183971174455,-0.160919855872275
1.401198,4.72031577225339,0.32183971174455,-0.160919855872275
1.412451,4.79541170499379,0.32183971174455,-0.10727990391485
1.420967,4.72031577225339,0.289655740570095,-0.10727990391485
1.429607,4.82759567616824,0.32183971174455,-0.160919855872275
1.440933,5.00997151282349,0.32183971174455,-0.10727990391485
1.455216,4.72031577225339,0.32183971174455,-0.160919855872275
1.461601,4.72031577225339,0.32183971174455,-0.12873588469782
1.470266,4.69885979147042,0.32183971174455,-0.10727990391485
1.481866,4.61303586833854,0.32183971174455,-0.10727990391485
1.490794,4.69885979147042,0.375479663701974,-0.12873588469782
1.501761,4.69885979147042,0.34329569252752,-0.160919855872275
1.513167,4.91341959930012,0.32183971174455,-0.12873588469782
1.521916,4.69885979147042,0.34329569252752,-0.10727990391485
1.532526,4.63449184912151,0.32183971174455,-0.12873588469782
1.541273,4.72031577225339,0.32183971174455,-0.10727990391485
1.552962,4.63449184912151,0.32183971174455,-0.160919855872275
1.562008,4.66667582029597,0.32183971174455,-0.10727990391485
1.572898,4.66667582029597,0.32183971174455,-0.10727990391485
1.58195300000001,4.69885979147042,0.32183971174455,-0.12873588469782
1.59326100000001,4.82759567616824,0.289655740570095,-0.12873588469782
1.604214,4.69885979147042,0.32183971174455,-0.12873588469782
1.610337,4.58085189716409,0.34329569252752,-0.10727990391485
1.619182,4.82759567616824,0.34329569252752,-0.10727990391485
1.63232900000001,4.72031577225339,0.34329569252752,-0.12873588469782
1.641125,4.66667582029597,0.375479663701974,-0.0750959327403949
1.64983,4.91341959930012,0.34329569252752,-0.10727990391485
1.661237,4.91341959930012,0.34329569252752,-0.10727990391485
1.672831,4.66667582029597,0.375479663701974,-0.10727990391485
1.684061,4.63449184912151,0.32183971174455,-0.10727990391485
1.690531,4.66667582029597,0.407663634876429,-0.160919855872275
1.701826,4.75249974342785,0.34329569252752,-0.12873588469782
1.713113,4.79541170499379,0.34329569252752,-0.10727990391485
1.721972,4.69885979147042,0.34329569252752,-0.160919855872275
1.732482,4.82759567616824,0.32183971174455,-0.12873588469782
1.741495,4.79541170499379,0.32183971174455,-0.10727990391485
1.753089,4.66667582029597,0.32183971174455,-0.12873588469782
1.762224,4.97778754164903,0.32183971174455,-0.10727990391485
1.773679,4.88123562812567,0.289655740570095,-0.0750959327403949
1.779603,5.06361146478091,0.32183971174455,-0.160919855872275
1.790829,5.03142749360646,0.289655740570095,-0.12873588469782
1.802588,5.00997151282349,0.268199759787125,-0.10727990391485
1.81341,5.09579543595537,0.268199759787125,-0.12873588469782
1.81954500000001,5.18161935908725,0.289655740570095,-0.160919855872275
1.83056000000001,5.29962725339358,0.289655740570095,-0.12873588469782
1.842553,5.38545117652546,0.289655740570095,-0.160919855872275
1.850909,5.43909112848289,0.23601578861267,-0.12873588469782
1.859153,5.58928299396368,0.268199759787125,-0.12873588469782
1.870363,5.80384280179338,0.2145598078297,-0.12873588469782
1.882066,5.8574827537508,0.2145598078297,-0.10727990391485
1.893133,5.98621863844862,0.15019186548079,-0.10727990391485
1.899296,6.19005045588684,0.15019186548079,-0.10727990391485
1.910556,6.3616983021506,0.12873588469782,-0.10727990391485
1.919611,6.60844208115475,0.0965519135233649,-0.12873588469782
1.933675,6.81227389859297,0.010727990391485,-0.10727990391485
1.941938,7.11265762955455,0.010727990391485,-0.10727990391485
1.950825,7.40231337012464,-0.010727990391485,-0.0750959327403949
1.962146,7.70269710108622,-0.0429119615659399,-0.10727990391485
1.970761,8.0030808320478,-0.0965519135233649,-0.10727990391485
1.982308,8.29273657261789,-0.15019186548079,-0.10727990391485
1.991263,8.5716643227965,-0.15019186548079,-0.0750959327403949
2.00273,8.82913609219214,-0.15019186548079,-0.0750959327403949
2.011771,9.01151192884739,-0.182375836655245,-0.10727990391485
2.020354,9.09733585197927,-0.182375836655245,-0.10727990391485
2.031524,9.58009541959609,-0.118007894306335,-0.12873588469782
2.040368,10.0092150352555,-0.0965519135233649,-0.2145598078297
2.051945,10.2988707758256,-0.118007894306335,-0.0750959327403949
2.06073600000001,10.6207104875701,-0.15019186548079,-0.0750959327403949
2.072577,10.9532781897062,-0.118007894306335,-0.0536399519574249
2.078142,11.3073018726252,-0.118007894306335,-0.0536399519574249
2.092269,11.5969576131953,-0.118007894306335,-0.0536399519574249
2.100528,11.8758853633739,-0.118007894306335,-0.0536399519574249
2.113078,12.144085123161,-0.118007894306335,-0.0536399519574249
2.118943,12.4015568925566,-0.118007894306335,-0.0536399519574249
2.129793,12.7019406235182,-0.182375836655245,-0.0536399519574249
2.141064,12.9165004313479,-0.15019186548079,-0.0536399519574249
2.152503,13.2168841623095,-0.15019186548079,-0.0536399519574249
2.161424,13.4528999509222,-0.15019186548079,-0.0536399519574249
2.169685,13.6567317683604,-0.15019186548079,-0.02145598078297
2.17788700000001,13.9249315281475,-0.15019186548079,-0.0536399519574249
2.19123800000001,14.1931312879346,-0.15019186548079,-0.02145598078297
2.202343,14.3969631053729,-0.182375836655245,-0.02145598078297
2.208821,14.6329788939855,-0.15019186548079,-0.02145598078297
2.222907,14.9440906153386,-0.15019186548079,0
2.231964,15.2337463559087,-0.15019186548079,-0.02145598078297
2.243277,15.5663140580447,-0.15019186548079,0
2.248842,15.8130578370489,-0.15019186548079,0
2.259701,16.102713577619,-0.15019186548079,0.032183971174455
2.270155,16.435281279755,-0.15019186548079,0.032183971174455
2.281783,16.6927530491506,-0.15019186548079,0.032183971174455
2.290104,16.9073128569803,-0.15019186548079,0.032183971174455
2.300944,17.2935205110738,-0.15019186548079,0.0643679423489099
2.312152,17.5509922804694,-0.15019186548079,0.0643679423489099
2.321005,17.8406480210395,-0.15019186548079,0.0858239231318799
2.332327,18.1303037616096,-0.15019186548079,0.0858239231318799
2.338858,18.3663195502223,-0.118007894306335,0.118007894306335
2.35303500000001,18.6667032811839,-0.118007894306335,0.0858239231318799
2.36138,18.8490791178391,-0.118007894306335,0.139463875089305
2.369305,19.0207269641029,-0.118007894306335,0.139463875089305
2.380427,19.2352867719326,-0.118007894306335,0.17164784626376
2.38916800000001,19.3854786374134,-0.15019186548079,0.139463875089305
2.402945,19.5249425125027,-0.118007894306335,0.19310382704673
2.411905,19.642950406809,-0.118007894306335,0.17164784626376
2.420883,19.9004221762046,-0.118007894306335,0.17164784626376
2.429849,19.9862460993365,-0.118007894306335,0.139463875089305
2.440609,20.0720700224684,-0.118007894306335,0.19310382704673
2.451686,20.1257099744258,-0.15019186548079,0.139463875089305
2.464216,20.2437178687322,-0.15019186548079,0.17164784626376
2.468037,20.2759018399066,-0.15019186548079,0.17164784626376
2.47977,20.4797336573448,-0.15019186548079,0.17164784626376
2.488584,20.9303092537872,-0.15019186548079,0.17164784626376
2.499324,21.1985090135743,-0.15019186548079,0.139463875089305
2.510851,21.5847166676678,-0.15019186548079,0.118007894306335
2.519713,21.9494683409783,-0.15019186548079,0.118007894306335
2.531274,22.2713080527228,-0.15019186548079,0.0643679423489099
2.540299,22.5931477644674,-0.15019186548079,0.032183971174455
2.551848,22.9042594858204,-0.118007894306335,0
2.560405,23.226099197565,-0.118007894306335,0
2.569488,23.4406590053947,-0.118007894306335,0.032183971174455
2.580101,23.6123068516585,-0.15019186548079,-0.02145598078297
2.590651,23.7732267075307,-0.118007894306335,0
2.599075,23.9234185730115,-0.118007894306335,-0.0536399519574249
2.610536,24.0092424961434,-0.118007894306335,-0.02145598078297
2.61960300000001,24.0950664192753,-0.118007894306335,-0.0536399519574249
2.630844,24.1594343616242,-0.15019186548079,-0.0536399519574249
2.639284,24.2774422559305,-0.15019186548079,-0.0536399519574249
2.65016900000001,24.2988982367135,-0.118007894306335,-0.0536399519574249
2.659027,24.3954501502369,-0.15019186548079,-0.0536399519574249
2.669767,24.4812740733687,-0.15019186548079,-0.0536399519574249
2.678824,24.5670979965006,-0.15019186548079,-0.0536399519574249
2.687673,24.6529219196325,-0.15019186548079,-0.0536399519574249
2.698571,24.7923857947218,-0.15019186548079,-0.0536399519574249
2.709529,24.8460257466792,-0.15019186548079,-0.0536399519574249
2.720883,24.9318496698111,-0.15019186548079,-0.0536399519574249
2.729219,25.0820415352919,-0.15019186548079,-0.0750959327403949
2.73996500000001,25.1678654584238,-0.15019186548079,-0.0536399519574249
2.748727,25.2215054103812,-0.15019186548079,-0.0750959327403949
2.760352,25.3180573239046,-0.15019186548079,-0.0750959327403949
2.772085,25.3824252662535,-0.15019186548079,-0.0750959327403949
2.781176,25.4146092374279,-0.15019186548079,-0.0750959327403949
2.79270200000001,25.3824252662535,-0.15019186548079,-0.0750959327403949
2.799033,25.4360652182109,-0.15019186548079,-0.10727990391485
2.810112,25.4146092374279,-0.15019186548079,-0.10727990391485
2.821052,25.3180573239046,-0.15019186548079,-0.12873588469782
2.82939,25.2215054103812,-0.182375836655245,-0.10727990391485
2.838504,25.017673592943,-0.15019186548079,-0.10727990391485
2.849694,24.7923857947218,-0.15019186548079,-0.10727990391485
2.86082,24.5027300541517,-0.15019186548079,-0.12873588469782
2.869317,24.2130743135816,-0.118007894306335,-0.12873588469782
2.879653,23.8590506306626,-0.118007894306335,-0.12873588469782
2.89104,23.4728429765692,-0.15019186548079,-0.12873588469782
2.899734,23.1617312552161,-0.118007894306335,-0.12873588469782
2.911072,22.8184355626886,-0.118007894306335,-0.10727990391485
2.922069,22.4536838893781,-0.118007894306335,-0.12873588469782
2.927903,22.1318441776335,-0.118007894306335,-0.12873588469782
2.938823,21.7992764754975,-0.118007894306335,-0.10727990391485
2.94966400000001,21.434524802187,-0.118007894306335,-0.10727990391485
2.958717,21.1126850904425,-0.118007894306335,-0.12873588469782
2.969794,20.747933417132,-0.15019186548079,-0.10727990391485
2.978661,20.4153657149959,-0.15019186548079,-0.12873588469782
2.99016200000001,20.1042539936429,-0.15019186548079,-0.10727990391485
2.998439,19.8145982530728,-0.15019186548079,-0.10727990391485
3.010071,19.5249425125027,-0.15019186548079,-0.10727990391485
3.020755,19.267470743107,-0.15019186548079,-0.0750959327403949
3.029733,18.9670870121455,-0.15019186548079,-0.10727990391485
