Time [s],Gauge Pressure [cmH2O],Inspiratory differenrtial pressure [cmH2O],Expiratory differenrtial pressure [cmH2O]
0,20.9946771961361,-0.15019186548079,-0.10727990391485
0.0031680000000005,21.080501119268,-0.15019186548079,-0.0750959327403949
0.00734500000000082,21.1126850904425,-0.15019186548079,-0.0750959327403949
0.0232640000000011,21.1985090135743,-0.15019186548079,-0.0750959327403949
0.0279240000000005,21.2199649943573,-0.15019186548079,-0.0750959327403949
0.0289650000000012,21.2950609270977,-0.15019186548079,-0.0750959327403949
0.0342760000000002,21.3487008790551,-0.15019186548079,-0.0750959327403949
0.0448090000000008,21.434524802187,-0.15019186548079,-0.0750959327403949
0.0552500000000009,21.4667087733615,-0.15019186548079,-0.0750959327403949
0.0659620000000007,21.4988927445359,-0.15019186548079,-0.0750959327403949
0.073875000000001,21.5525326964933,-0.15019186548079,-0.0750959327403949
0.0846,21.6705405907997,-0.15019186548079,-0.0750959327403949
0.0958050000000004,21.7349085331486,-0.15019186548079,-0.0750959327403949
0.104778000000001,21.8529164274549,-0.15019186548079,-0.0750959327403949
0.115651,22.0674762352846,-0.15019186548079,-0.0750959327403949
0.126799,22.2498520719399,-0.15019186548079,-0.0750959327403949
0.133190000000001,22.3893159470292,-0.15019186548079,-0.0536399519574249
0.146858,22.5931477644674,-0.15019186548079,-0.0536399519574249
0.155245000000001,22.7862515915141,-0.15019186548079,-0.0750959327403949
0.164990000000001,22.9900834089523,-0.15019186548079,-0.0536399519574249
0.176399,23.1080913032587,-0.15019186548079,-0.0750959327403949
0.185253000000001,23.2582831687394,-0.15019186548079,-0.0750959327403949
0.194229,23.3762910630458,-0.15019186548079,-0.0750959327403949
0.204859000000001,23.4406590053947,-0.15019186548079,-0.0750959327403949
0.216415000000001,23.4728429765692,-0.15019186548079,-0.0750959327403949
0.22551,23.3762910630458,-0.15019186548079,-0.0750959327403949
0.234437,23.3226511110884,-0.118007894306335,-0.0750959327403949
0.243424000000001,23.1617312552161,-0.118007894306335,-0.0750959327403949
0.254064000000001,23.0544513513012,-0.118007894306335,-0.12873588469782
0.265228,22.9364434569949,-0.118007894306335,-0.10727990391485
0.274011000000002,22.6896996779907,-0.118007894306335,-0.10727990391485
0.284682,22.475139870161,-0.118007894306335,-0.0750959327403949
0.295916,22.3356759950717,-0.118007894306335,-0.10727990391485
0.304895,22.185484129591,-0.15019186548079,-0.12873588469782
0.316210000000002,22.0138362833272,-0.118007894306335,-0.160919855872275
0.327116,21.7992764754975,-0.118007894306335,-0.160919855872275
0.333480000000002,21.6383566196252,-0.118007894306335,-0.160919855872275
0.347626000000002,21.4667087733615,-0.118007894306335,-0.160919855872275
0.353158000000001,21.3272448982722,-0.118007894306335,-0.160919855872275
0.364209000000002,21.1663250423999,-0.118007894306335,-0.10727990391485
0.374566999999999,21.080501119268,-0.118007894306335,-0.160919855872275
0.385573000000001,20.9303092537872,-0.118007894306335,-0.12873588469782
0.394010000000002,20.7908453786979,-0.118007894306335,-0.12873588469782
0.402995000000001,20.6621094940001,-0.118007894306335,-0.10727990391485
0.415877000000002,20.5977415516512,-0.118007894306335,-0.10727990391485
0.423483000000001,20.5119176285193,-0.118007894306335,-0.12873588469782
0.442873000000002,20.3617257630385,-0.15019186548079,-0.10727990391485
0.443260000000002,20.3080858110811,-0.118007894306335,-0.10727990391485
0.472819000000001,20.2759018399066,-0.118007894306335,-0.10727990391485
0.475268,20.1900779167747,-0.118007894306335,-0.10727990391485
0.476215,20.1578939456003,-0.118007894306335,-0.10727990391485
0.484845,20.1578939456003,-0.118007894306335,-0.10727990391485
0.495654999999999,20.1257099744258,-0.118007894306335,-0.10727990391485
0.503613000000001,20.1042539936429,-0.118007894306335,-0.0750959327403949
0.514647,20.1257099744258,-0.118007894306335,-0.12873588469782
0.526222000000001,20.0720700224684,-0.118007894306335,-0.10727990391485
0.535216000000002,20.1042539936429,-0.118007894306335,-0.10727990391485
0.546893000000001,20.1257099744258,-0.118007894306335,-0.0750959327403949
0.553249000000001,20.1578939456003,-0.15019186548079,-0.0750959327403949
0.564367000000001,20.1900779167747,-0.15019186548079,-0.10727990391485
0.575015,20.2115338975577,-0.15019186548079,-0.10727990391485
0.583446000000002,20.2115338975577,-0.15019186548079,-0.0750959327403949
0.594626999999999,20.2437178687322,-0.15019186548079,-0.10727990391485
0.605722,20.2759018399066,-0.15019186548079,-0.0750959327403949
0.614708,20.3080858110811,-0.15019186548079,-0.0750959327403949
0.626300000000001,20.3617257630385,-0.15019186548079,-0.10727990391485
0.635273000000002,20.4153657149959,-0.15019186548079,-0.0750959327403949
0.646827000000002,20.4797336573448,-0.15019186548079,-0.10727990391485
0.653216,20.5119176285193,-0.15019186548079,-0.10727990391485
0.664767000000001,20.5655575804767,-0.15019186548079,-0.0750959327403949
0.673659000000001,20.5977415516512,-0.15019186548079,-0.10727990391485
0.684477000000001,20.5655575804767,-0.15019186548079,-0.0750959327403949
0.695574000000001,20.5119176285193,-0.15019186548079,-0.0750959327403949
0.704592000000002,20.5119176285193,-0.15019186548079,-0.0750959327403949
0.716146999999999,20.4797336573448,-0.15019186548079,-0.10727990391485
0.725132000000002,20.4797336573448,-0.15019186548079,-0.12873588469782
0.731504000000001,20.4153657149959,-0.15019186548079,-0.12873588469782
0.743045000000002,20.393909734213,-0.15019186548079,-0.12873588469782
0.756524000000002,20.393909734213,-0.15019186548079,-0.12873588469782
0.765492999999999,20.329541791864,-0.15019186548079,-0.160919855872275
0.774007000000001,20.3080858110811,-0.15019186548079,-0.12873588469782
0.785981,20.3080858110811,-0.15019186548079,-0.160919855872275
0.793995000000002,20.2115338975577,-0.15019186548079,-0.12873588469782
0.802647,20.2115338975577,-0.15019186548079,-0.12873588469782
0.816300000000002,20.1578939456003,-0.182375836655245,-0.0750959327403949
0.822732999999999,20.1900779167747,-0.15019186548079,-0.0750959327403949
0.833907,20.1900779167747,-0.15019186548079,-0.10727990391485
0.844632000000001,20.1257099744258,-0.15019186548079,-0.10727990391485
0.853577000000001,20.1257099744258,-0.15019186548079,-0.10727990391485
0.865129,20.1257099744258,-0.118007894306335,-0.10727990391485
0.875672000000002,20.1042539936429,-0.118007894306335,-0.10727990391485
0.884654000000001,20.039886051294,-0.118007894306335,-0.10727990391485
0.895803000000001,20.0720700224684,-0.118007894306335,-0.10727990391485
0.901679000000001,20.0077020801195,-0.118007894306335,-0.10727990391485
0.912805000000002,19.9862460993365,-0.118007894306335,-0.10727990391485
0.924287,20.0077020801195,-0.118007894306335,-0.0750959327403949
0.932846000000001,19.9540621281621,-0.118007894306335,-0.10727990391485
0.943999000000002,19.9862460993365,-0.118007894306335,-0.0750959327403949
0.955646000000002,19.9862460993365,-0.118007894306335,-0.12873588469782
0.964646999999999,19.9862460993365,-0.15019186548079,-0.0750959327403949
0.976215,19.9540621281621,-0.15019186548079,-0.10727990391485
0.985208,20.0077020801195,-0.15019186548079,-0.0750959327403949
0.994091000000001,20.0720700224684,-0.15019186548079,-0.10727990391485
1.002196,20.039886051294,-0.15019186548079,-0.0750959327403949
1.013606,20.039886051294,-0.15019186548079,-0.10727990391485
1.024642,20.1042539936429,-0.15019186548079,-0.12873588469782
1.033554,20.1042539936429,-0.15019186548079,-0.10727990391485
1.045204,20.1042539936429,-0.15019186548079,-0.10727990391485
1.054206,20.1257099744258,-0.15019186548079,-0.10727990391485
1.065922,20.1042539936429,-0.15019186548079,-0.0750959327403949
1.072419,20.1578939456003,-0.15019186548079,-0.10727990391485
1.083485,20.1578939456003,-0.15019186548079,-0.10727990391485
1.093844,20.1900779167747,-0.15019186548079,-0.12873588469782
1.104733,20.2115338975577,-0.15019186548079,-0.10727990391485
1.115694,20.3080858110811,-0.15019186548079,-0.10727990391485
1.124537,20.3080858110811,-0.15019186548079,-0.0536399519574249
1.135909,20.393909734213,-0.15019186548079,-0.10727990391485
1.144913,20.4475496861704,-0.15019186548079,-0.10727990391485
1.156389,20.4153657149959,-0.15019186548079,-0.0750959327403949
1.16278,20.4475496861704,-0.15019186548079,-0.10727990391485
1.17401,20.4475496861704,-0.15019186548079,-0.0750959327403949
1.182746,20.4797336573448,-0.15019186548079,-0.10727990391485
1.196256,20.4475496861704,-0.182375836655245,-0.10727990391485
1.201991,20.5119176285193,-0.15019186548079,-0.0750959327403949
1.212646,20.5119176285193,-0.15019186548079,-0.0750959327403949
1.221516,20.5333736093023,-0.15019186548079,-0.0750959327403949
1.233097,20.5655575804767,-0.15019186548079,-0.0750959327403949
1.241875,20.5977415516512,-0.15019186548079,-0.10727990391485
1.25295,20.6621094940001,-0.15019186548079,-0.0750959327403949
1.264474,20.747933417132,-0.15019186548079,-0.0750959327403949
1.275503,20.8230293498724,-0.15019186548079,-0.0750959327403949
1.2844,20.9088532730042,-0.15019186548079,-0.0750959327403949
1.295603,20.9303092537872,-0.15019186548079,-0.10727990391485
1.304146,21.0483171480935,-0.15019186548079,-0.0750959327403949
1.315935,21.1126850904425,-0.15019186548079,-0.10727990391485
1.324316,21.1663250423999,-0.15019186548079,-0.0750959327403949
1.33297,21.2628769559232,-0.15019186548079,-0.0750959327403949
1.34189,21.3272448982722,-0.15019186548079,-0.0536399519574249
1.355046,21.3487008790551,-0.15019186548079,-0.0750959327403949
1.364031,21.413068821404,-0.15019186548079,-0.0750959327403949
1.375168,21.434524802187,-0.15019186548079,-0.0750959327403949
1.384124,21.5310767157104,-0.15019186548079,-0.0750959327403949
1.395673,21.5847166676678,-0.15019186548079,-0.0750959327403949
1.40417,21.5847166676678,-0.15019186548079,-0.0750959327403949
1.412624,21.6169006388422,-0.15019186548079,-0.0750959327403949
1.420458,21.6705405907997,-0.15019186548079,-0.10727990391485
1.431838,21.7027245619741,-0.15019186548079,-0.12873588469782
1.445364,21.767092504323,-0.118007894306335,-0.10727990391485
1.45437,21.767092504323,-0.15019186548079,-0.10727990391485
1.463417,21.7992764754975,-0.15019186548079,-0.10727990391485
1.472404,21.8958283890209,-0.15019186548079,-0.10727990391485
1.484032,21.9280123601953,-0.15019186548079,-0.12873588469782
1.492618,21.9494683409783,-0.15019186548079,-0.10727990391485
1.504192,21.9816523121527,-0.15019186548079,-0.10727990391485
1.51487,22.0460202545016,-0.15019186548079,-0.12873588469782
1.523116,22.1318441776335,-0.15019186548079,-0.12873588469782
1.534439,22.1318441776335,-0.15019186548079,-0.12873588469782
1.543049,22.1533001584165,-0.15019186548079,-0.10727990391485
1.554681,22.2176681007654,-0.15019186548079,-0.10727990391485
1.561098,22.2713080527228,-0.15019186548079,-0.10727990391485
1.574998,22.3356759950717,-0.15019186548079,-0.10727990391485
1.583977,22.3571319758547,-0.15019186548079,-0.10727990391485
1.59034,22.3571319758547,-0.15019186548079,-0.160919855872275
1.601872,22.4214999182036,-0.15019186548079,-0.10727990391485
1.615051,22.4536838893781,-0.15019186548079,-0.10727990391485
1.623953,22.4536838893781,-0.15019186548079,-0.10727990391485
1.631738,22.4214999182036,-0.15019186548079,-0.12873588469782
1.642773,22.475139870161,-0.15019186548079,-0.0750959327403949
1.653818,22.3893159470292,-0.15019186548079,-0.0750959327403949
1.66277,22.4536838893781,-0.15019186548079,-0.0750959327403949
1.673978,22.4536838893781,-0.15019186548079,-0.12873588469782
1.682143,22.4214999182036,-0.15019186548079,-0.0750959327403949
1.693303,22.4214999182036,-0.15019186548079,-0.0750959327403949
1.704434,22.4214999182036,-0.118007894306335,-0.10727990391485
1.71258,22.4536838893781,-0.118007894306335,-0.0750959327403949
1.723303,22.4214999182036,-0.118007894306335,-0.0750959327403949
1.732133,22.475139870161,-0.118007894306335,-0.10727990391485
1.742714,22.4536838893781,-0.118007894306335,-0.10727990391485
1.754188,22.475139870161,-0.118007894306335,-0.10727990391485
1.762981,22.475139870161,-0.118007894306335,-0.10727990391485
1.774031,22.5073238413355,-0.118007894306335,-0.10727990391485
1.78303,22.475139870161,-0.118007894306335,-0.10727990391485
1.794461,22.53950781251,-0.118007894306335,-0.12873588469782
1.803319,22.5073238413355,-0.118007894306335,-0.10727990391485
1.814647,22.53950781251,-0.118007894306335,-0.12873588469782
1.823634,22.5073238413355,-0.118007894306335,-0.10727990391485
1.83521,22.5073238413355,-0.118007894306335,-0.10727990391485
1.841384,22.53950781251,-0.118007894306335,-0.10727990391485
1.852283,22.53950781251,-0.118007894306335,-0.0750959327403949
1.862843,22.5073238413355,-0.118007894306335,-0.0750959327403949
1.873508,22.475139870161,-0.118007894306335,-0.10727990391485
1.881722,22.4536838893781,-0.118007894306335,-0.0750959327403949
1.893246,22.4214999182036,-0.118007894306335,-0.0750959327403949
1.904384,22.3571319758547,-0.118007894306335,-0.0750959327403949
1.91337,22.3034920238973,-0.118007894306335,-0.0750959327403949
1.924805,22.3034920238973,-0.118007894306335,-0.10727990391485
1.93123,22.2498520719399,-0.118007894306335,-0.0750959327403949
1.942322,22.1318441776335,-0.118007894306335,-0.0750959327403949
1.950666,22.0460202545016,-0.118007894306335,-0.12873588469782
1.962026,21.9494683409783,-0.118007894306335,-0.10727990391485
1.973164,21.8529164274549,-0.118007894306335,-0.10727990391485
1.982157,21.767092504323,-0.118007894306335,-0.0750959327403949
1.993296,21.7349085331486,-0.118007894306335,-0.0750959327403949
2.004801,21.6705405907997,-0.118007894306335,-0.0750959327403949
2.011208,21.6383566196252,-0.15019186548079,-0.0750959327403949
2.02263,21.6169006388422,-0.15019186548079,-0.0750959327403949
2.031591,21.5525326964933,-0.15019186548079,-0.10727990391485
2.043149,21.4667087733615,-0.15019186548079,-0.0750959327403949
2.052114,21.434524802187,-0.15019186548079,-0.10727990391485
2.063522,21.3487008790551,-0.182375836655245,-0.0750959327403949
2.072046,21.3272448982722,-0.15019186548079,-0.10727990391485
2.083536,21.2950609270977,-0.15019186548079,-0.10727990391485
2.09242,21.2628769559232,-0.15019186548079,-0.10727990391485
2.103733,21.1985090135743,-0.15019186548079,-0.10727990391485
2.112688,21.1985090135743,-0.15019186548079,-0.10727990391485
2.123586,21.2199649943573,-0.15019186548079,-0.10727990391485
2.134279,21.2199649943573,-0.15019186548079,-0.0750959327403949
2.140669,21.1985090135743,-0.15019186548079,-0.10727990391485
2.151899,21.2199649943573,-0.182375836655245,-0.0750959327403949
2.163017,21.1985090135743,-0.15019186548079,-0.10727990391485
2.174178,21.1985090135743,-0.15019186548079,-0.10727990391485
2.180127,21.1985090135743,-0.15019186548079,-0.0750959327403949
2.190638,21.1985090135743,-0.15019186548079,-0.0750959327403949
2.201875,21.2199649943573,-0.15019186548079,-0.0750959327403949
2.210865,21.2199649943573,-0.15019186548079,-0.10727990391485
2.222455,21.2628769559232,-0.15019186548079,-0.10727990391485
2.23144,21.2628769559232,-0.15019186548079,-0.10727990391485
2.242982,21.2950609270977,-0.15019186548079,-0.0750959327403949
2.251937,21.3487008790551,-0.15019186548079,-0.0750959327403949
2.262627,21.3487008790551,-0.15019186548079,-0.0750959327403949
2.273797,21.3808848502296,-0.15019186548079,-0.10727990391485
2.282559,21.413068821404,-0.15019186548079,-0.0750959327403949
2.29338,21.413068821404,-0.182375836655245,-0.10727990391485
2.302135,21.413068821404,-0.15019186548079,-0.0750959327403949
2.311115,21.413068821404,-0.15019186548079,-0.10727990391485
2.322339,21.3808848502296,-0.15019186548079,-0.10727990391485
2.330518,21.3808848502296,-0.15019186548079,-0.0750959327403949
2.341922,21.3808848502296,-0.15019186548079,-0.0750959327403949
2.353557,21.413068821404,-0.15019186548079,-0.0536399519574249
2.362537,21.434524802187,-0.15019186548079,-0.10727990391485
2.373981,21.4667087733615,-0.15019186548079,-0.0536399519574249
2.382955,21.4667087733615,-0.15019186548079,-0.10727990391485
2.394309,21.4988927445359,-0.15019186548079,-0.10727990391485
2.40097,21.4988927445359,-0.15019186548079,-0.0750959327403949
2.412492,21.5310767157104,-0.15019186548079,-0.10727990391485
2.421425,21.4988927445359,-0.15019186548079,-0.10727990391485
2.433034,21.4988927445359,-0.15019186548079,-0.0750959327403949
2.442014,21.4667087733615,-0.15019186548079,-0.0750959327403949
2.453669,21.4667087733615,-0.182375836655245,-0.0750959327403949
2.462743,21.434524802187,-0.15019186548079,-0.0750959327403949
2.471573,21.434524802187,-0.15019186548079,-0.0750959327403949
2.480466,21.3808848502296,-0.15019186548079,-0.0750959327403949
2.4906,21.3808848502296,-0.15019186548079,-0.0750959327403949
2.503718,21.3487008790551,-0.15019186548079,-0.0536399519574249
2.512371,21.3272448982722,-0.15019186548079,-0.0750959327403949
2.521127,21.3272448982722,-0.15019186548079,-0.0750959327403949
2.530218,21.2199649943573,-0.182375836655245,-0.10727990391485
2.543296,21.2199649943573,-0.15019186548079,-0.10727990391485
2.551751,21.1663250423999,-0.15019186548079,-0.0750959327403949
2.563286,21.1341410712254,-0.15019186548079,-0.0750959327403949
2.569632,21.1126850904425,-0.15019186548079,-0.10727990391485
2.583824,21.1126850904425,-0.15019186548079,-0.0750959327403949
2.592751,21.0483171480935,-0.15019186548079,-0.10727990391485
2.603864,21.0268611673106,-0.15019186548079,-0.0750959327403949
2.609569,21.0268611673106,-0.15019186548079,-0.10727990391485
2.620914,21.0268611673106,-0.15019186548079,-0.0750959327403949
2.629899,21.0268611673106,-0.15019186548079,-0.0750959327403949
2.641446,21.0268611673106,-0.15019186548079,-0.10727990391485
2.652778,21.0268611673106,-0.15019186548079,-0.10727990391485
2.661211,21.0268611673106,-0.15019186548079,-0.160919855872275
2.672521,21.0268611673106,-0.15019186548079,-0.10727990391485
2.683756,20.9946771961361,-0.15019186548079,-0.10727990391485
2.689916,20.9946771961361,-0.15019186548079,-0.12873588469782
2.700647,20.9946771961361,-0.15019186548079,-0.12873588469782
2.712062,20.9303092537872,-0.15019186548079,-0.10727990391485
2.721062,20.9088532730042,-0.15019186548079,-0.10727990391485
2.732661,20.9303092537872,-0.15019186548079,-0.10727990391485
2.741641,20.9624932249617,-0.15019186548079,-0.10727990391485
2.753257,20.9088532730042,-0.15019186548079,-0.12873588469782
2.76222,20.9088532730042,-0.15019186548079,-0.0750959327403949
2.77379,20.9088532730042,-0.15019186548079,-0.0750959327403949
2.78017,20.9088532730042,-0.15019186548079,-0.10727990391485
2.791988,20.8766693018298,-0.15019186548079,-0.0750959327403949
2.800906,20.9088532730042,-0.15019186548079,-0.0750959327403949
2.812503,20.8766693018298,-0.15019186548079,-0.0750959327403949
2.8187,20.8766693018298,-0.15019186548079,-0.0750959327403949
2.832784,20.8766693018298,-0.15019186548079,-0.10727990391485
2.841272,20.8766693018298,-0.15019186548079,-0.0750959327403949
2.852839,20.8444853306553,-0.15019186548079,-0.10727990391485
2.8613,20.9088532730042,-0.15019186548079,-0.0750959327403949
2.870363,20.9088532730042,-0.15019186548079,-0.0750959327403949
2.881918,20.9088532730042,-0.182375836655245,-0.0750959327403949
2.890789,20.9088532730042,-0.15019186548079,-0.0750959327403949
2.901291,20.9303092537872,-0.15019186548079,-0.0750959327403949
2.909427,20.9946771961361,-0.15019186548079,-0.10727990391485
2.920397,20.9946771961361,-0.15019186548079,-0.10727990391485
2.93111,20.9624932249617,-0.15019186548079,-0.10727990391485
2.942422,21.0268611673106,-0.15019186548079,-0.0750959327403949
2.951321,20.9946771961361,-0.15019186548079,-0.0750959327403949
2.962511,21.0483171480935,-0.15019186548079,-0.0750959327403949
2.971017,21.0483171480935,-0.182375836655245,-0.0750959327403949
2.982491,21.080501119268,-0.15019186548079,-0.0750959327403949
2.990857,21.1126850904425,-0.15019186548079,-0.0750959327403949
2.999865,21.1663250423999,-0.15019186548079,-0.0750959327403949
3.011228,21.2199649943573,-0.15019186548079,-0.0750959327403949
