Time [s],Gauge Pressure,Inspiratory differenrtial pressure,Expiratory differenrtial pressure
0,9021,8175,8182
0.0186139999999995,9052,8175,8182
0.0236220000000031,9077,8175,8185
0.0331700000000055,9104,8173,8182
0.0408960000000036,9146,8173,8182
0.0504590000000036,9182,8181,8185
0.061833,9211,8175,8190
0.0709030000000013,9240,8181,8185
0.0798890000000014,9262,8181,8185
0.0889379999999989,9279,8178,8185
0.0997190000000003,9299,8181,8185
0.108166000000004,9310,8181,8185
0.119286000000002,9321,8181,8187
0.130949000000001,9337,8178,8185
0.139455000000005,9354,8181,8185
0.150794000000005,9365,8178,8182
0.159770999999999,9371,8181,8182
0.171187000000003,9379,8181,8182
0.179283000000005,9393,8178,8182
0.190799000000005,9404,8175,8182
0.202088000000003,9424,8175,8182
0.208459000000005,9435,8178,8185
0.219428000000001,9457,8175,8185
0.228373000000005,9476,8175,8185
0.239702999999999,9497,8178,8185
0.248530000000002,9513,8175,8185
0.258949999999999,9529,8175,8185
0.268839,9548,8175,8187
0.27966,9561,8178,8185
0.288627000000005,9585,8181,8185
0.300190000000001,9607,8178,8187
0.309201999999999,9628,8178,8187
0.320759000000002,9648,8178,8187
0.329719000000004,9666,8178,8187
0.341290000000001,9679,8181,8187
0.349784,9693,8178,8185
0.360444999999999,9704,8178,8187
0.368279999999999,9721,8178,8185
0.381361000000005,9729,8178,8187
0.390354000000002,9742,8178,8187
0.401669000000005,9751,8178,8187
0.410679000000002,9762,8178,8187
0.419668000000001,9771,8175,8187
0.428670000000004,9780,8178,8185
0.440023000000004,9788,8175,8187
0.448226000000005,9796,8178,8185
0.458961000000002,9801,8175,8185
0.470146,9807,8175,8185
0.478827000000003,9807,8175,8185
0.490385000000003,9815,8181,8185
0.499065999999999,9818,8178,8182
0.510615000000001,9818,8181,8185
0.516868000000002,9820,8181,8185
0.530968000000001,9826,8181,8182
0.539957999999999,9826,8181,8185
0.548874000000005,9831,8181,8185
0.559401000000001,9837,8178,8185
0.568442000000005,9839,8181,8185
0.579934999999999,9837,8181,8185
0.588075000000003,9842,8178,8185
0.599716000000001,9842,8178,8182
0.611113000000003,9842,8175,8182
0.620125000000002,9842,8178,8185
0.629026000000003,9845,8178,8182
0.638049000000002,9842,8175,8182
0.649055000000004,9847,8175,8182
0.657689000000005,9852,8175,8182
0.671216000000001,9852,8175,8185
0.680019000000001,9858,8175,8182
0.688880000000005,9860,8175,8185
0.697852000000005,9868,8181,8185
0.709031000000003,9871,8181,8185
0.717997000000004,9879,8178,8185
0.729567000000003,9882,8178,8185
0.74053,9885,8181,8185
0.748606000000002,9885,8178,8185
0.757544000000003,9887,8181,8182
0.770368000000005,9890,8181,8185
0.778666000000001,9893,8181,8185
0.790058000000002,9893,8178,8182
0.799075000000002,9893,8181,8185
0.808062,9895,8181,8185
0.819515000000003,9898,8181,8182
0.828540000000004,9901,8181,8185
0.840146000000004,9904,8181,8185
0.849045000000004,9906,8178,8185
0.860575000000004,9909,8181,8185
0.869546,9912,8178,8185
0.880293000000002,9915,8181,8185
0.886150000000001,9921,8178,8185
0.899089000000004,9923,8178,8185
0.908028999999999,9923,8178,8185
0.919595000000001,9932,8175,8185
0.928240000000002,9934,8175,8185
0.939785000000001,9937,8175,8185
0.950838000000005,9940,8175,8185
0.959809,9940,8175,8187
0.970890000000004,9943,8175,8185
0.977257000000002,9943,8175,8185
0.98845,9940,8178,8185
0.997117000000003,9943,8175,8185
1.010742,9943,8181,8185
1.017138,9943,8183,8185
1.028569,9943,8181,8185
1.040205,9940,8181,8185
1.049214,9940,8183,8185
1.05813,9937,8181,8185
1.069564,9940,8181,8182
1.07853100000001,9940,8181,8185
1.0901,9940,8183,8185
1.096449,9943,8181,8185
1.10929,9946,8181,8185
1.118073,9952,8178,8182
1.129627,9954,8181,8185
1.138617,9954,8178,8182
1.150203,9952,8178,8185
1.15916,9954,8181,8182
1.170665,9952,8178,8185
1.179647,9952,8178,8185
1.187795,9952,8178,8185
1.198566,9952,8178,8185
1.209693,9952,8181,8185
1.218047,9952,8178,8185
1.229078,9952,8178,8185
1.240377,9954,8178,8185
1.24676,9957,8178,8182
1.260708,9960,8178,8185
1.266893,9962,8178,8185
1.278899,9965,8178,8185
1.28758300000001,9971,8178,8185
1.29797900000001,9971,8178,8187
1.309121,9977,8181,8185
1.317252,9980,8181,8187
1.328007,9988,8178,8185
1.336754,9990,8178,8185
1.350592,9996,8175,8187
1.356968,9999,8178,8185
1.368073,10004,8175,8187
1.377051,10007,8178,8185
1.39085,10015,8178,8185
1.397248,10020,8175,8185
1.408371,10026,8178,8182
1.416411,10028,8178,8185
1.428918,10031,8178,8185
1.437264,10035,8181,8185
1.448649,10039,8178,8185
1.460238,10041,8178,8185
1.466639,10044,8178,8182
1.477465,10047,8178,8185
1.488514,10052,8178,8182
1.497464,10052,8178,8182
1.508997,10055,8178,8185
1.519966,10057,8178,8182
1.526222,10060,8178,8185
1.538966,10063,8178,8185
1.547935,10066,8175,8185
1.559244,10066,8175,8182
1.565519,10068,8175,8182
1.577063,10068,8175,8185
1.588706,10071,8175,8185
1.597735,10071,8178,8182
1.609296,10074,8175,8182
1.617779,10074,8178,8182
1.62892,10071,8175,8182
1.63728,10068,8178,8182
1.649083,10066,8178,8182
1.657861,10066,8178,8185
1.66881100000001,10063,8178,8185
1.677142,10063,8178,8180
1.688691,10060,8175,8182
1.697693,10060,8181,8182
1.706676,10057,8178,8182
1.717851,10052,8178,8182
1.726549,10049,8178,8182
1.737341,10047,8181,8185
1.744941,10041,8181,8182
1.755577,10041,8178,8182
1.766374,10041,8178,8182
1.780259,10035,8178,8182
1.786575,10031,8181,8182
1.797521,10035,8178,8182
1.806497,10031,8181,8185
1.820206,10031,8178,8185
1.826603,10031,8181,8182
1.838114,10035,8178,8180
1.84646,10035,8178,8185
1.857199,10035,8175,8182
1.867845,10039,8175,8182
1.876829,10039,8178,8185
1.888382,10044,8175,8182
1.896608,10044,8175,8185
1.908305,10044,8178,8185
1.919526,10044,8175,8182
1.925933,10044,8175,8182
1.939618,10041,8175,8182
1.945705,10035,8175,8182
1.956495,10028,8175,8185
1.966974,10020,8178,8182
1.977181,10020,8178,8182
1.98885600000001,10018,8178,8182
1.997372,10018,8178,8180
2.008214,10012,8178,8182
2.017001,10009,8178,8182
2.028524,9996,8175,8182
2.037444,9988,8175,8185
2.048929,9977,8175,8182
2.057489,9960,8181,8180
2.068903,9946,8178,8180
2.074682,9934,8181,8180
2.088116,9918,8178,8180
2.099034,9906,8181,8180
2.108057,9898,8178,8180
2.116997,9904,8181,8180
2.12596600000001,9901,8181,8180
2.13752,9895,8178,8180
2.146527,9895,8178,8182
2.157495,9890,8178,8180
2.166004,9890,8178,8180
2.177255,9887,8181,8180
2.186232,9887,8178,8182
2.197642,9885,8178,8180
2.206748,9887,8181,8182
2.217852,9890,8181,8182
2.229109,9887,8181,8182
2.238079,9885,8178,8182
2.249439,9882,8181,8182
2.255616,9879,8181,8182
2.266818,9882,8178,8180
2.278024,9876,8178,8182
2.28725,9874,8181,8180
2.298348,9868,8181,8182
2.306643,9866,8178,8182
2.31778600000001,9863,8178,8182
2.326723,9858,8181,8185
2.33824,9855,8178,8182
2.344329,9847,8178,8180
2.355387,9845,8178,8180
2.368957,9842,8181,8182
2.37442,9839,8178,8180
2.385776,9834,8178,8180
2.396299,9828,8178,8182
2.404509,9820,8178,8182
2.415711,9815,8181,8180
2.426905,9807,8178,8182
2.435221,9804,8181,8180
2.44638,9793,8181,8180
2.457884,9785,8178,8180
2.464217,9780,8181,8182
2.477897,9774,8175,8180
2.486291,9765,8175,8182
2.497674,9762,8175,8182
2.505902,9756,8175,8182
2.516435,9751,8175,8185
2.524232,9745,8175,8177
2.536845,9737,8178,8182
2.545032,9734,8175,8180
2.556256,9726,8178,8182
2.567757,9724,8175,8182
2.57649,9718,8175,8182
2.587526,9713,8181,8185
2.593476,9710,8178,8182
2.607517,9706,8178,8182
2.616516,9701,8181,8182
2.628097,9693,8181,8182
2.636529,9690,8181,8182
2.645516,9687,8181,8182
2.656981,9682,8178,8182
2.665933,9677,8178,8182
2.677449,9674,8181,8182
2.686399,9671,8175,8182
2.697921,9668,8178,8182
2.706705,9662,8175,8182
2.715027,9662,8178,8185
2.726451,9657,8175,8182
2.734322,9657,8175,8180
2.74705700000001,9651,8178,8180
2.758209,9646,8178,8180
2.764589,9643,8175,8180
2.776203,9643,8175,8182
2.787488,9643,8175,8182
2.796106,9634,8178,8182
2.804925,9639,8181,8182
2.818324,9643,8178,8182
2.82727,9646,8181,8182
2.836081,9648,8181,8182
2.844704,9648,8178,8182
2.855888,9651,8178,8185
2.864346,9651,8181,8182
2.87577,9648,8178,8185
2.886837,9648,8181,8182
2.895791,9654,8175,8182
2.907351,9654,8175,8180
2.915728,9657,8178,8182
2.926213,9654,8175,8182
2.937772,9657,8175,8182
2.944251,9659,8175,8182
2.958039,9662,8175,8185
2.966627,9666,8175,8185
2.975698,9668,8175,8185
2.98468,9671,8175,8182
2.996248,9674,8181,8182
3.005215,9674,8181,8185
3.016432,9679,8181,8185
3.027211,9682,8178,8185
3.036174,9685,8178,8182
3.047818,9685,8178,8185
3.056777,9687,8181,8182
3.065745,9685,8178,8185
3.074723,9685,8181,8185
3.086305,9687,8178,8182
3.09528,9682,8178,8185
3.106821,9682,8178,8182
3.115378,9682,8175,8182
3.126312,9679,8175,8182
3.13721200000001,9677,8175,8185
3.144568,9677,8175,8182
3.156909,9671,8175,8182
3.167647,9671,8175,8182
3.176474,9662,8178,8182
3.184898,9662,8175,8180
3.193871,9659,8175,8185
3.205117,9657,8181,8182
3.214104,9648,8181,8182
3.228019,9648,8183,8182
3.233829,9646,8183,8182
3.246051,9646,8181,8182
3.254178,9646,8183,8180
3.267992,9639,8183,8180
3.274999,9637,8181,8177
3.286528,9637,8181,8180
3.295212,9637,8183,8180
3.306295,9637,8181,8177
3.315273,9634,8175,8180
3.32686,9637,8175,8180
3.335842,9634,8175,8180
3.347413,9637,8175,8185
3.354078,9634,8178,8182
3.364829,9639,8175,8185
3.3725,9639,8178,8185
3.383934,9639,8175,8185
3.395247,9643,8178,8185
3.404235,9643,8175,8185
3.415813,9648,8178,8185
3.42482800000001,9646,8181,8185
3.436376,9646,8178,8185
3.442785,9648,8178,8182
3.456934,9648,8181,8182
3.46545,9651,8181,8182
3.476406,9654,8181,8185
3.485056,9654,8178,8182
3.493775,9654,8178,8182
3.50483000000001,9654,8178,8185
3.516403,9657,8178,8185
3.527459,9659,8181,8185
3.533851,9659,8183,8185
3.544858,9666,8183,8185
3.555745,9668,8183,8185
3.564723,9674,8181,8185
3.57354400000001,9674,8181,8182
3.584614,9679,8181,8180
3.595327,9682,8181,8185
3.603971,9679,8181,8182
3.615013,9679,8181,8182
3.626428,9685,8178,8182
3.635397,9679,8178,8182
3.646721,9679,8178,8182
3.653142,9682,8181,8182
3.666693,9679,8181,8182
3.674307,9685,8178,8182
3.685707,9687,8181,8182
3.696725,9693,8178,8182
3.703114,9695,8178,8182
3.714294,9695,8181,8182
3.722541,9693,8181,8182
3.73406900000001,9695,8178,8182
3.74304,9695,8181,8182
3.754628,9693,8181,8185
3.765245,9693,8178,8182
3.777346,9693,8178,8182
3.783512,9693,8181,8182
3.795073,9693,8178,8185
3.804054,9693,8178,8182
3.815637,9695,8178,8182
3.824628,9701,8178,8182
3.836213,9704,8178,8182
3.842617,9706,8178,8182
3.85675000000001,9706,8178,8185
3.865597,9706,8175,8185
3.873746,9713,8175,8185
3.882907,9713,8175,8182
3.896704,9715,8175,8182
3.905639,9715,8178,8182
3.914516,9713,8178,8185
3.923485,9715,8178,8185
3.935003,9721,8178,8182
3.943554,9721,8178,8182
3.954493,9724,8178,8182
3.96298,9724,8178,8182
3.973449,9718,8178,8185
3.984357,9721,8178,8182
3.993351,9721,8178,8182
4.00480200000001,9721,8178,8182
4.013937,9721,8178,8182
4.025154,9721,8178,8182
4.033723,9721,8178,8182
4.04526,9721,8175,8182
4.05345000000001,9721,8178,8182
4.064959,9721,8178,8182
4.076187,9724,8175,8182
4.082595,9724,8178,8185
4.095722,9724,8178,8185
4.104429,9726,8175,8182
4.11546,9726,8175,8182
4.124306,9724,8178,8182
4.133345,9729,8175,8185
4.144899,9729,8175,8182
4.153368,9729,8178,8182
4.164387,9734,8178,8182
4.172933,9734,8178,8182
4.183416,9740,8178,8180
4.194765,9740,8178,8185
4.206315,9742,8178,8182
4.212706,9745,8181,8182
4.223779,9742,8178,8182
4.234672,9748,8178,8182
4.24369100000001,9745,8181,8185
4.255268,9745,8178,8185
4.264248,9751,8178,8185
4.275917,9753,8178,8182
4.284485,9753,8178,8185
4.295518,9756,8178,8182
4.304043,9760,8175,8182
4.31563300000001,9762,8178,8182
4.324253,9765,8178,8182
4.333056,9765,8178,8185
4.344132,9768,8178,8185
4.355668,9774,8178,8185
4.364656,9777,8175,8185
4.37595,9782,8178,8185
4.382309,9782,8175,8185
4.392851,9791,8175,8185
4.403512,9793,8175,8185
4.414312,9799,8175,8185
4.423301,9801,8178,8185
4.432255,9804,8178,8182
4.445899,9807,8175,8185
4.454874,9807,8178,8182
4.463437,9807,8175,8185
4.47230800000001,9809,8175,8182
4.483379,9809,8175,8182
4.494042,9809,8175,8185
4.502262,9807,8178,8182
4.513458,9807,8173,8182
4.524371,9812,8178,8182
4.533354,9812,8175,8182
4.542351,9818,8178,8182
4.55393,9818,8175,8182
4.562393,9815,8175,8182
4.57344000000001,9815,8181,8182
4.584588,9815,8183,8182
4.594744,9815,8181,8185
4.603464,9809,8181,8182
4.614123,9812,8183,8182
4.623112,9807,8181,8182
4.634231,9807,8183,8182
4.645167,9804,8181,8182
4.654128,9801,8183,8185
4.665777,9799,8183,8185
4.672192,9799,8178,8182
4.683471,9799,8175,8182
4.691938,9801,8175,8182
4.704808,9799,8175,8182
4.71547200000001,9799,8175,8185
4.72188300000001,9796,8175,8182
4.733485,9796,8178,8180
4.742448,9796,8175,8182
4.753888,9796,8175,8182
4.764471,9793,8178,8182
4.773431,9793,8175,8182
4.782451,9791,8178,8182
4.793785,9788,8175,8185
4.802889,9793,8178,8182
4.814245,9791,8175,8182
4.824782,9785,8175,8182
4.833219,9785,8178,8182
4.844303,9782,8178,8182
4.853247,9782,8178,8182
4.8648,9777,8178,8182
4.873764,9777,8178,8182
4.885264,9777,8178,8177
4.89160800000001,9774,8178,8180
4.902446,9771,8178,8177
4.912593,9771,8175,8180
4.922498,9771,8178,8180
4.932199,9771,8175,8180
4.942773,9768,8178,8180
4.95081800000001,9768,8178,8180
4.964419,9768,8178,8180
4.975208,9765,8175,8180
4.98159800000001,9762,8175,8182
4.99316200000001,9760,8175,8182
5.001622,9762,8175,8180
5.01207,9760,8178,8182
5.021897,9760,8178,8185
5.032513,9760,8175,8182
5.043384,9760,8178,8182
5.054493,9760,8175,8182
5.063443,9756,8178,8182
5.07468,9756,8178,8182
5.083626,9756,8178,8180
5.094996,9756,8178,8180
5.10136,9756,8181,8180
5.112883,9753,8178,8180
5.121839,9753,8178,8180
5.132419,9751,8178,8177
5.143839,9751,8178,8180
5.152751,9751,8178,8180
5.163794,9751,8181,8180
5.172308,9748,8178,8180
5.183829,9751,8181,8182
5.192711,9751,8178,8182
5.20165,9751,8178,8185
5.213177,9753,8178,8180
5.221879,9756,8178,8182
5.233223,9753,8178,8185
5.243822,9756,8178,8182
5.252258,9760,8178,8185
5.263088,9762,8178,8182
5.271619,9762,8181,8182
5.282512,9762,8178,8185
5.293986,9760,8178,8185
5.303044,9762,8178,8182
5.314573,9762,8175,8185
5.32095200000001,9762,8178,8182
5.331814,9760,8175,8182
5.34335,9765,8175,8182
5.354871,9765,8175,8182
5.361292,9765,8175,8185
5.37216,9771,8178,8182
5.380509,9774,8178,8182
5.393669,9777,8175,8182
5.402634,9777,8175,8182
5.413442,9777,8175,8185
5.423913,9774,8175,8182
5.432399,9771,8175,8182
5.443935,9771,8175,8182
5.45287800000001,9771,8175,8182
5.46171500000001,9771,8175,8182
5.470659,9768,8178,8182
5.484287,9765,8178,8182
5.490654,9760,8178,8182
5.501865,9760,8175,8182
5.513385,9756,8178,8182
5.524684,9756,8178,8182
5.53123100000001,9756,8178,8182
5.542409,9760,8175,8182
5.551379,9760,8178,8182
5.562058,9756,8175,8182
5.571006,9753,8175,8182
5.58155,9753,8178,8182
5.593084,9753,8175,8182
5.601012,9753,8175,8182
5.612386,9748,8178,8182
5.623919,9751,8181,8182
5.632875,9748,8178,8180
5.644173,9745,8181,8182
5.653119,9742,8178,8182
5.661812,9740,8178,8182
5.670758,9737,8181,8185
5.682291,9734,8181,8182
5.691237,9732,8178,8180
5.702763,9729,8178,8182
5.711431,9726,8178,8182
5.722221,9724,8181,8185
5.732172,9724,8178,8182
5.743485,9721,8178,8182
5.752431,9721,8178,8182
5.76371,9715,8181,8182
5.772329,9715,8178,8182
5.783922,9715,8178,8182
5.79167,9710,8181,8182
5.802016,9710,8178,8182
5.812863,9706,8181,8180
5.82176,9706,8181,8182
5.830772,9706,8181,8182
5.841675,9706,8181,8182
5.850667,9698,8178,8185
5.861849,9701,8178,8182
5.873324,9698,8178,8182
5.879693,9698,8178,8182
5.893569,9695,8181,8182
5.902509,9693,8178,8185
5.91063,9695,8181,8182
5.92226,9693,8181,8182
5.931045,9693,8178,8182
5.942574,9693,8175,8182
5.951495,9693,8175,8180
5.963028,9685,8175,8182
5.972026,9687,8178,8182
5.983517,9685,8175,8182
5.992459,9685,8175,8180
6.001406,9685,8178,8182
6.010427,9682,8175,8182
6.022042,9685,8175,8180
6.030172,9685,8181,8182
6.041577,9685,8181,8182
6.053134,9682,8178,8182
6.061772,9682,8178,8182
6.073299,9677,8178,8185
6.082253,9677,8181,8182
6.090826,9674,8178,8182
6.102346,9674,8181,8182
6.113411,9674,8181,8182
6.122367,9671,8178,8185
6.131343,9668,8181,8182
6.140467,9668,8178,8182
6.151994,9671,8181,8182
6.160913,9674,8178,8182
6.172359,9674,8178,8185
6.181321,9679,8178,8182
6.192488,9677,8178,8182
6.200855,9679,8178,8182
6.21230600000001,9679,8178,8182
6.222372,9677,8178,8182
6.231326,9674,8178,8180
6.242857,9674,8178,8180
6.253591,9668,8178,8185
6.259948,9671,8178,8182
6.271438,9666,8175,8182
6.28046000000001,9666,8178,8182
6.291612,9668,8175,8182
6.299934,9668,8175,8182
6.312931,9666,8178,8182
6.32189200000001,9668,8178,8182
6.333499,9668,8178,8185
6.339895,9668,8178,8182
6.351449,9668,8181,8182
6.360171,9666,8181,8182
6.371311,9666,8183,8182
6.382635,9662,8181,8180
6.39157,9666,8181,8180
6.403038,9662,8181,8182
6.412046,9662,8181,8182
6.423347,9659,8181,8185
6.42970500000001,9659,8181,8180
6.441235,9657,8181,8182
6.450181,9654,8178,8182
6.461706,9651,8181,8182
6.470515,9648,8181,8182
6.482055,9646,8178,8180
6.49257100000001,9643,8181,8182
6.50152,9639,8178,8180
6.50996,9637,8181,8182
6.521372,9634,8178,8182
6.530228,9637,8178,8180
6.541688,9628,8181,8185
6.550634,9631,8181,8182
6.55959,9628,8175,8180
6.571174,9626,8175,8180
6.582219,9626,8175,8180
6.593099,9626,8178,8182
6.599446,9623,8178,8182
6.611016,9620,8178,8182
6.619974,9618,8178,8182
6.63136,9618,8178,8182
6.64031,9618,8175,8182
6.651851,9618,8175,8182
6.660791,9618,8178,8182
6.672145,9612,8181,8182
6.678527,9612,8178,8182
6.69237500000001,9610,8181,8182
6.701315,9610,8178,8182
6.712837,9610,8178,8182
6.721803,9607,8181,8185
6.730744,9607,8178,8182
6.739698,9604,8181,8180
6.750259,9604,8181,8182
6.761701,9604,8181,8182
6.770217,9604,8181,8182
6.779131,9601,8178,8180
6.789873,9601,8181,8182
6.801292,9599,8178,8182
6.809519,9599,8178,8185
6.82104,9596,8178,8185
6.832294,9596,8181,8182
6.841262,9593,8178,8182
6.850235,9593,8178,8185
6.859227,9593,8178,8182
6.87031,9588,8178,8180
6.881314,9591,8181,8182
6.890161,9585,8178,8180
6.901688,9580,8181,8185
6.910631,9585,8178,8185
6.919594,9588,8178,8180
6.931117,9588,8181,8185
6.939597,9591,8181,8185
6.950733,9596,8178,8182
6.959609,9596,8181,8182
6.971147,9601,8181,8182
6.980085,9601,8178,8182
6.991619,9610,8178,8182
7.000564,9607,8178,8182
7.012123,9607,8181,8185
7.018494,9610,8178,8182
7.03001,9607,8178,8182
7.038571,9610,8178,8182
7.04972100000001,9610,8178,8180
7.060754,9607,8181,8182
7.069716,9607,8178,8180
7.08127,9607,8181,8182
7.090237,9607,8178,8185
7.101788,9607,8178,8185
7.108167,9607,8181,8180
7.119715,9607,8178,8182
7.128688,9607,8178,8185
7.140221,9604,8178,8182
7.151316,9601,8181,8182
7.160259,9601,8178,8180
7.17153,9599,8178,8182
7.180413,9596,8178,8185
7.188856,9596,8178,8182
7.200497,9591,8181,8180
7.209381,9585,8181,8180
7.220009,9585,8178,8185
7.231123,9582,8178,8182
7.24008300000001,9577,8181,8182
7.251602,9577,8178,8182
7.26056000000001,9570,8178,8182
7.272153,9567,8178,8180
7.278531,9564,8181,8177
7.288998,9564,8178,8182
7.300552,9564,8181,8182
7.309509,9564,8181,8182
7.321154,9561,8181,8182
7.33011,9561,8181,8182
7.338992,9559,8178,8182
7.350412,9556,8178,8182
7.359313,9553,8181,8182
7.368288,9553,8178,8185
7.376839,9553,8178,8182
7.388399,9551,8178,8182
7.402089,9551,8178,8182
7.408287,9551,8178,8182
7.419145,9548,8178,8182
7.428088,9548,8181,8182
7.441645,9545,8178,8182
7.447993,9548,8178,8182
7.459035,9545,8178,8182
7.470352,9545,8181,8185
7.478849,9548,8178,8182
7.487837,9545,8181,8185
7.49887,9545,8175,8182
7.507835,9548,8178,8182
7.519194,9548,8175,8182
7.53073300000001,9548,8178,8182
7.539692,9548,8175,8182
7.548634,9548,8178,8182
7.55677,9548,8175,8182
7.570869,9548,8178,8182
7.579488,9548,8178,8185
7.58769,9548,8178,8182
7.598937,9548,8181,8182
7.610519,9551,8181,8182
7.616905,9545,8181,8182
7.63096,9545,8181,8185
7.639913,9551,8181,8180
7.647849,9548,8181,8182
7.658264,9553,8181,8182
7.667316,9553,8181,8185
7.68104200000001,9559,8178,8182
7.690027,9559,8181,8182
7.701558,9564,8181,8182
7.707938,9561,8181,8182
7.719487,9559,8181,8182
7.728292,9559,8178,8182
7.739003,9561,8178,8180
7.74935,9559,8178,8182
7.759691,9553,8178,8182
7.770935,9553,8178,8182
7.777307,9553,8178,8182
7.788813,9553,8181,8182
