Time [s],Gauge Pressure [cmH2O],Inspiratory differenrtial pressure [cmH2O],Expiratory differenrtial pressure [cmH2O]
0,5.38545117652546,-0.15019186548079,-0.10727990391485
0.0214439999999954,5.47127509965734,-0.15019186548079,-0.10727990391485
0.0261129999999952,5.55709902278922,-0.182375836655245,-0.12873588469782
0.0303009999999944,5.6429229459211,-0.15019186548079,-0.12873588469782
0.0433579999999978,5.80384280179338,-0.15019186548079,-0.10727990391485
0.0495269999999977,5.88966672492526,-0.182375836655245,-0.0750959327403949
0.0602400000000003,5.98621863844862,-0.15019186548079,-0.0750959327403949
0.0686210000000003,6.0720425615805,-0.15019186548079,-0.12873588469782
0.0780260000000013,6.15786648471238,-0.15019186548079,-0.0750959327403949
0.0884059999999991,6.27587437901872,-0.15019186548079,-0.0750959327403949
0.0990129999999994,6.34024232136763,-0.182375836655245,-0.10727990391485
0.107409999999994,6.44752222528248,-0.15019186548079,-0.10727990391485
0.117210999999998,6.51189016763139,-0.15019186548079,-0.12873588469782
0.129756,6.56553011958881,-0.182375836655245,-0.10727990391485
0.139486999999995,6.64062605232921,-0.15019186548079,-0.12873588469782
0.149653999999998,6.69426600428663,-0.182375836655245,-0.10727990391485
0.157222999999995,6.66208203311218,-0.15019186548079,-0.0750959327403949
0.167505999999996,6.75863394663554,-0.182375836655245,-0.0750959327403949
0.180687999999996,6.81227389859297,-0.15019186548079,-0.0750959327403949
0.188412,6.96246576407376,-0.15019186548079,-0.12873588469782
0.198957999999998,7.05901767759712,-0.15019186548079,-0.12873588469782
0.210392999999996,7.144841600729,-0.15019186548079,-0.10727990391485
0.218900999999995,7.31648944699276,-0.15019186548079,-0.12873588469782
0.227543999999995,7.47740930286504,-0.118007894306335,-0.10727990391485
0.240980999999998,7.58468920677988,-0.118007894306335,-0.10727990391485
0.248989999999999,7.70269710108622,-0.118007894306335,-0.10727990391485
0.257430999999997,7.82070499539256,-0.15019186548079,-0.10727990391485
0.267210999999996,8.0030808320478,-0.15019186548079,-0.12873588469782
0.279156,8.08890475517968,-0.15019186548079,-0.10727990391485
0.289687000000001,8.20691264948601,-0.15019186548079,-0.10727990391485
0.298293999999999,8.29273657261789,-0.118007894306335,-0.0750959327403949
0.309534999999997,8.42147245731571,-0.118007894306335,-0.12873588469782
0.320681,8.5716643227965,-0.15019186548079,-0.0750959327403949
0.328916,8.71112819788581,-0.15019186548079,-0.12873588469782
0.339402999999997,8.74331216906026,-0.118007894306335,-0.10727990391485
0.350296,8.89350403454105,-0.118007894306335,-0.10727990391485
0.358599999999996,8.95787197688996,-0.118007894306335,-0.10727990391485
0.369047999999999,9.04369590002184,-0.118007894306335,-0.0750959327403949
0.377832999999995,9.09733585197927,-0.15019186548079,-0.10727990391485
0.390889999999999,9.25825570785154,-0.118007894306335,-0.12873588469782
0.399664000000001,9.31189565980897,-0.118007894306335,-0.0750959327403949
0.408645999999997,9.37626360215788,-0.118007894306335,-0.0750959327403949
0.420093999999999,9.4299035541153,-0.15019186548079,-0.12873588469782
0.429068000000001,9.49427149646421,-0.118007894306335,-0.10727990391485
0.440691999999999,9.49427149646421,-0.15019186548079,-0.10727990391485
0.449659999999994,9.51572747724718,-0.118007894306335,-0.10727990391485
0.458217999999995,9.54791144842164,-0.118007894306335,-0.10727990391485
0.469918999999997,9.54791144842164,-0.118007894306335,-0.10727990391485
0.478096999999998,9.54791144842164,-0.118007894306335,-0.10727990391485
0.490190999999996,9.54791144842164,-0.15019186548079,-0.0750959327403949
0.499125999999997,9.54791144842164,-0.15019186548079,-0.0750959327403949
0.510069000000001,9.54791144842164,-0.118007894306335,-0.10727990391485
0.519058999999999,9.54791144842164,-0.15019186548079,-0.10727990391485
0.530726000000001,9.51572747724718,-0.118007894306335,-0.0750959327403949
0.539713999999996,9.58009541959609,-0.118007894306335,-0.0750959327403949
0.550882999999999,9.54791144842164,-0.15019186548079,-0.12873588469782
0.558593999999999,9.58009541959609,-0.118007894306335,-0.10727990391485
0.570011000000001,9.63373537155352,-0.118007894306335,-0.10727990391485
0.580812999999999,9.66591934272797,-0.118007894306335,-0.10727990391485
0.586799999999997,9.63373537155352,-0.15019186548079,-0.0750959327403949
0.597941999999996,9.66591934272797,-0.15019186548079,-0.10727990391485
0.611216999999996,9.60155140037906,-0.118007894306335,-0.0750959327403949
0.620171999999997,9.63373537155352,-0.118007894306335,-0.12873588469782
0.628806999999995,9.66591934272797,-0.15019186548079,-0.12873588469782
0.637744999999995,9.66591934272797,-0.118007894306335,-0.10727990391485
0.648626,9.66591934272797,-0.182375836655245,-0.10727990391485
0.65757,9.69810331390243,-0.182375836655245,-0.12873588469782
0.670293000000001,9.69810331390243,-0.182375836655245,-0.12873588469782
0.675916999999998,9.69810331390243,-0.15019186548079,-0.10727990391485
0.688938999999998,9.69810331390243,-0.15019186548079,-0.160919855872275
0.699391999999996,9.69810331390243,-0.15019186548079,-0.12873588469782
0.708131999999999,9.75174326585985,-0.15019186548079,-0.12873588469782
0.719329999999999,9.7195592946854,-0.182375836655245,-0.12873588469782
0.728113999999998,9.7195592946854,-0.15019186548079,-0.10727990391485
0.738726,9.75174326585985,-0.15019186548079,-0.0750959327403949
0.750270999999998,9.75174326585985,-0.15019186548079,-0.0750959327403949
0.756422999999998,9.75174326585985,-0.182375836655245,-0.10727990391485
0.767976999999995,9.78392723703431,-0.15019186548079,-0.0750959327403949
0.779046000000001,9.78392723703431,-0.15019186548079,-0.10727990391485
0.79016,9.78392723703431,-0.15019186548079,-0.10727990391485
0.79598,9.78392723703431,-0.15019186548079,-0.0750959327403949
0.808591,9.75174326585985,-0.15019186548079,-0.10727990391485
0.819671,9.75174326585985,-0.15019186548079,-0.0750959327403949
0.830580999999995,9.75174326585985,-0.15019186548079,-0.0750959327403949
0.839562999999998,9.78392723703431,-0.15019186548079,-0.10727990391485
0.848016999999999,9.78392723703431,-0.182375836655245,-0.10727990391485
0.856933999999995,9.75174326585985,-0.15019186548079,-0.0750959327403949
0.870748999999996,9.7195592946854,-0.182375836655245,-0.10727990391485
0.8797,9.7195592946854,-0.15019186548079,-0.12873588469782
0.888385,9.66591934272797,-0.15019186548079,-0.12873588469782
0.896446999999995,9.60155140037906,-0.15019186548079,-0.0750959327403949
0.908085,9.51572747724718,-0.15019186548079,-0.10727990391485
0.916336999999999,9.46208752528976,-0.15019186548079,-0.0750959327403949
0.926583999999998,9.40844757333233,-0.15019186548079,-0.12873588469782
0.938997999999998,9.34407963098342,-0.15019186548079,-0.12873588469782
0.948054999999997,9.290439679026,-0.15019186548079,-0.10727990391485
0.956955999999998,9.290439679026,-0.118007894306335,-0.10727990391485
0.968671000000001,9.290439679026,-0.118007894306335,-0.12873588469782
0.977581000000001,9.25825570785154,-0.118007894306335,-0.12873588469782
0.986632,9.31189565980897,-0.118007894306335,-0.10727990391485
0.996694999999995,9.31189565980897,-0.118007894306335,-0.0750959327403949
1.008658,9.37626360215788,-0.118007894306335,-0.0536399519574249
1.015733,9.37626360215788,-0.118007894306335,-0.10727990391485
1.026659,9.40844757333233,-0.118007894306335,-0.10727990391485
1.035604,9.40844757333233,-0.118007894306335,-0.0750959327403949
1.04909,9.40844757333233,-0.118007894306335,-0.10727990391485
1.05651,9.4299035541153,-0.118007894306335,-0.10727990391485
1.066312,9.40844757333233,-0.118007894306335,-0.10727990391485
1.078267,9.40844757333233,-0.118007894306335,-0.12873588469782
1.088879,9.40844757333233,-0.118007894306335,-0.0750959327403949
1.097552,9.4299035541153,-0.118007894306335,-0.10727990391485
1.108509,9.40844757333233,-0.118007894306335,-0.12873588469782
1.117445,9.37626360215788,-0.118007894306335,-0.12873588469782
1.12854,9.34407963098342,-0.118007894306335,-0.10727990391485
1.138882,9.34407963098342,-0.15019186548079,-0.10727990391485
1.146667,9.37626360215788,-0.15019186548079,-0.12873588469782
1.156687,9.40844757333233,-0.15019186548079,-0.12873588469782
1.169623,9.4299035541153,-0.118007894306335,-0.10727990391485
1.178254,9.4299035541153,-0.118007894306335,-0.10727990391485
1.189463,9.4299035541153,-0.15019186548079,-0.10727990391485
1.198425,9.46208752528976,-0.15019186548079,-0.12873588469782
1.206582,9.40844757333233,-0.118007894306335,-0.10727990391485
1.217946,9.37626360215788,-0.118007894306335,-0.10727990391485
1.226647,9.37626360215788,-0.15019186548079,-0.12873588469782
1.23697199999999,9.31189565980897,-0.118007894306335,-0.10727990391485
1.245448,9.290439679026,-0.15019186548079,-0.10727990391485
1.25909799999999,9.25825570785154,-0.15019186548079,-0.10727990391485
1.267725,9.22607173667709,-0.182375836655245,-0.10727990391485
1.278282,9.17243178471966,-0.182375836655245,-0.0750959327403949
1.287975,9.17243178471966,-0.15019186548079,-0.10727990391485
1.29907499999999,9.0758798711963,-0.182375836655245,-0.0750959327403949
1.310512,9.0758798711963,-0.15019186548079,-0.12873588469782
1.316799,9.04369590002184,-0.182375836655245,-0.0750959327403949
1.328181,9.04369590002184,-0.15019186548079,-0.0750959327403949
1.336986,9.01151192884739,-0.15019186548079,-0.10727990391485
1.347788,9.04369590002184,-0.15019186548079,-0.10727990391485
1.355998,8.99005594806442,-0.15019186548079,-0.10727990391485
1.366875,8.99005594806442,-0.15019186548079,-0.10727990391485
1.377717,8.95787197688996,-0.15019186548079,-0.10727990391485
1.386478,8.95787197688996,-0.15019186548079,-0.0750959327403949
1.39806799999999,8.95787197688996,-0.15019186548079,-0.10727990391485
1.406073,8.95787197688996,-0.182375836655245,-0.10727990391485
1.417087,8.92568800571551,-0.15019186548079,-0.0750959327403949
1.428235,8.92568800571551,-0.15019186548079,-0.10727990391485
1.436642,8.89350403454105,-0.15019186548079,-0.0750959327403949
1.446889,8.8613200633666,-0.182375836655245,-0.0750959327403949
1.459443,8.8613200633666,-0.15019186548079,-0.10727990391485
1.467817,8.8613200633666,-0.15019186548079,-0.10727990391485
1.478778,8.89350403454105,-0.15019186548079,-0.12873588469782
1.487343,8.8613200633666,-0.15019186548079,-0.12873588469782
1.498942,8.82913609219214,-0.15019186548079,-0.0750959327403949
1.507799,8.8613200633666,-0.182375836655245,-0.12873588469782
1.516558,8.89350403454105,-0.15019186548079,-0.10727990391485
1.527871,8.8613200633666,-0.182375836655245,-0.10727990391485
1.536271,8.82913609219214,-0.182375836655245,-0.12873588469782
1.548049,8.8613200633666,-0.15019186548079,-0.160919855872275
1.559556,8.89350403454105,-0.182375836655245,-0.12873588469782
1.567235,8.82913609219214,-0.182375836655245,-0.12873588469782
1.577484,8.8613200633666,-0.15019186548079,-0.160919855872275
1.588028,8.8613200633666,-0.182375836655245,-0.12873588469782
1.596395,8.8613200633666,-0.15019186548079,-0.10727990391485
1.607115,8.8613200633666,-0.15019186548079,-0.12873588469782
1.618754,8.82913609219214,-0.15019186548079,-0.10727990391485
1.627106,8.89350403454105,-0.15019186548079,-0.12873588469782
1.638672,8.89350403454105,-0.15019186548079,-0.12873588469782
1.646819,8.8613200633666,-0.15019186548079,-0.0750959327403949
1.656244,8.89350403454105,-0.15019186548079,-0.160919855872275
1.667809,8.82913609219214,-0.182375836655245,-0.0750959327403949
1.678998,8.79695212101769,-0.15019186548079,-0.12873588469782
1.687116,8.71112819788581,-0.15019186548079,-0.10727990391485
1.698349,8.62530427475393,-0.118007894306335,-0.10727990391485
1.709167,8.5716643227965,-0.15019186548079,-0.10727990391485
1.715532,8.45365642849017,-0.118007894306335,-0.0750959327403949
1.728837,8.42147245731571,-0.15019186548079,-0.10727990391485
1.735216,8.45365642849017,-0.118007894306335,-0.0750959327403949
1.749072,8.42147245731571,-0.15019186548079,-0.0750959327403949
1.757262,8.48584039966462,-0.15019186548079,-0.10727990391485
1.76743099999999,8.45365642849017,-0.15019186548079,-0.10727990391485
1.778402,8.48584039966462,-0.15019186548079,-0.10727990391485
1.787375,8.48584039966462,-0.15019186548079,-0.0750959327403949
1.798553,8.48584039966462,-0.118007894306335,-0.10727990391485
1.809486,8.48584039966462,-0.118007894306335,-0.12873588469782
1.817998,8.42147245731571,-0.118007894306335,-0.0750959327403949
1.826472,8.38928848614126,-0.118007894306335,-0.0750959327403949
1.835413,8.38928848614126,-0.118007894306335,-0.12873588469782
1.849277,8.36783250535829,-0.118007894306335,-0.12873588469782
1.855644,8.27128059183493,-0.118007894306335,-0.10727990391485
1.866224,8.23909662066047,-0.118007894306335,-0.10727990391485
1.876631,8.20691264948601,-0.118007894306335,-0.0750959327403949
1.888206,8.15327269752859,-0.118007894306335,-0.10727990391485
1.899213,8.15327269752859,-0.15019186548079,-0.10727990391485
1.905605,8.12108872635413,-0.118007894306335,-0.0750959327403949
1.917164,8.08890475517968,-0.15019186548079,-0.0750959327403949
1.92616,7.98162485126483,-0.15019186548079,-0.0750959327403949
1.937824,7.98162485126483,-0.15019186548079,-0.10727990391485
1.946799,7.98162485126483,-0.15019186548079,-0.10727990391485
1.958368,7.94944088009037,-0.15019186548079,-0.10727990391485
1.967307,7.87434494734998,-0.15019186548079,-0.10727990391485
1.97589,7.7885210242181,-0.15019186548079,-0.10727990391485
1.98681,7.73488107226068,-0.15019186548079,-0.0750959327403949
1.997227,7.67051312991177,-0.15019186548079,-0.12873588469782
2.008512,7.61687317795434,-0.118007894306335,-0.0750959327403949
2.017362,7.56323322599691,-0.118007894306335,-0.0750959327403949
2.028923,7.53104925482246,-0.118007894306335,-0.12873588469782
2.036864,7.47740930286504,-0.118007894306335,-0.0750959327403949
2.045189,7.4344973412991,-0.15019186548079,-0.10727990391485
2.05631899999999,7.37012939895019,-0.118007894306335,-0.10727990391485
2.06776199999999,7.31648944699276,-0.118007894306335,-0.0750959327403949
2.076669,7.28430547581831,-0.15019186548079,-0.12873588469782
2.08804,7.23066552386088,-0.118007894306335,-0.0750959327403949
2.096961,7.16629758151197,-0.118007894306335,-0.10727990391485
2.108437,7.11265762955455,-0.15019186548079,-0.10727990391485
2.119222,7.08047365838009,-0.118007894306335,-0.0750959327403949
2.125559,7.05901767759712,-0.15019186548079,-0.12873588469782
2.136992,7.02683370642267,-0.118007894306335,-0.10727990391485
2.14711399999999,6.99464973524821,-0.118007894306335,-0.0750959327403949
2.156139,6.94100978329079,-0.15019186548079,-0.0750959327403949
2.165285,6.90882581211633,-0.15019186548079,-0.0750959327403949
2.176238,6.90882581211633,-0.15019186548079,-0.10727990391485
2.18727699999999,6.86591385055039,-0.118007894306335,-0.10727990391485
2.19765,6.81227389859297,-0.15019186548079,-0.12873588469782
2.205882,6.75863394663554,-0.15019186548079,-0.10727990391485
2.217544,6.69426600428663,-0.15019186548079,-0.10727990391485
2.226225,6.60844208115475,-0.118007894306335,-0.12873588469782
2.237779,6.60844208115475,-0.118007894306335,-0.0750959327403949
2.248679,6.42606624449951,-0.118007894306335,-0.10727990391485
2.255056,6.34024232136763,-0.118007894306335,-0.10727990391485
2.268559,6.24369040784426,-0.118007894306335,-0.10727990391485
2.277026,6.15786648471238,-0.15019186548079,-0.10727990391485
2.287657,6.05058658079753,-0.118007894306335,-0.10727990391485
2.296199,5.95403466727417,-0.118007894306335,-0.12873588469782
2.30526,5.80384280179338,-0.118007894306335,-0.10727990391485
2.314183,5.6429229459211,-0.15019186548079,-0.12873588469782
2.328335,5.5034590708318,-0.15019186548079,-0.10727990391485
2.333934,5.41763514769992,-0.15019186548079,-0.10727990391485
2.345459,5.23525931104467,-0.118007894306335,-0.10727990391485
2.35702,5.06361146478091,-0.15019186548079,-0.10727990391485
2.366043,4.88123562812567,-0.15019186548079,-0.10727990391485
2.377589,4.72031577225339,-0.118007894306335,-0.12873588469782
2.386506,4.51648395481518,-0.15019186548079,-0.12873588469782
2.394945,4.37702007972587,-0.15019186548079,-0.10727990391485
2.408241,4.25901218541954,-0.15019186548079,-0.10727990391485
2.416667,4.1410042911132,-0.15019186548079,-0.10727990391485
2.425613,4.02299639680687,-0.15019186548079,-0.10727990391485
2.43629,3.87280453132608,-0.15019186548079,-0.10727990391485
2.445287,3.74406864662826,-0.118007894306335,-0.10727990391485
2.45639,3.62606075232193,-0.118007894306335,-0.12873588469782
2.467365,3.50805285801559,-0.15019186548079,-0.10727990391485
2.47525599999999,3.33640501175183,-0.118007894306335,-0.10727990391485
2.48666799999999,3.13257319431362,-0.118007894306335,-0.10727990391485
2.495172,2.88582941530946,-0.118007894306335,-0.12873588469782
2.506231,2.64981362669679,-0.118007894306335,-0.10727990391485
2.517286,2.38161386690967,-0.15019186548079,-0.10727990391485
2.526228,2.09195812633957,-0.15019186548079,-0.10727990391485
2.53781499999999,1.75939042420354,-0.15019186548079,-0.12873588469782
2.543847,1.52337463559087,-0.15019186548079,-0.12873588469782
2.555252,1.26590286619523,-0.15019186548079,-0.12873588469782
2.566318,0.976247125625134,-0.15019186548079,-0.160919855872275
2.574782,0.761687317795434,-0.15019186548079,-0.160919855872275
2.585645,0.23601578861267,-0.15019186548079,-0.160919855872275
2.597172,0.0643679423489099,-0.118007894306335,-0.12873588469782
2.60749,-0.19310382704673,-0.118007894306335,-0.19310382704673
2.615134,-0.27892775017861,-0.118007894306335,-0.12873588469782
2.626236,-0.429119615659399,-0.0965519135233649,-0.12873588469782
2.637508,-0.547127509965734,-0.0643679423489099,-0.160919855872275
2.64602499999999,-0.654407413880584,-0.0643679423489099,-0.12873588469782
2.657649,-0.772415308186919,-0.0643679423489099,-0.12873588469782
2.665796,-0.890423202493254,-0.0429119615659399,-0.10727990391485
2.674402,-0.922607173667709,-0.0429119615659399,-0.12873588469782
2.685019,-1.05134305836553,-0.0429119615659399,-0.10727990391485
2.696497,-1.0727990391485,-0.010727990391485,-0.10727990391485
2.705454,-1.14789497188889,-0.010727990391485,-0.12873588469782
2.716507,-1.14789497188889,-0.010727990391485,-0.10727990391485
2.727292,-1.20153492384632,-0.010727990391485,-0.10727990391485
2.735597,-1.20153492384632,-0.010727990391485,-0.10727990391485
2.74711,-1.26590286619523,-0.0429119615659399,-0.10727990391485
2.755804,-1.23371889502077,-0.0429119615659399,-0.10727990391485
2.767353,-1.31954281815265,-0.0429119615659399,-0.10727990391485
2.776232,-1.31954281815265,-0.0429119615659399,-0.12873588469782
2.787761,-1.31954281815265,-0.010727990391485,-0.10727990391485
2.797923,-1.40536674128453,-0.010727990391485,-0.10727990391485
2.804314,-1.40536674128453,-0.010727990391485,-0.12873588469782
2.814508,-1.49119066441641,-0.010727990391485,-0.12873588469782
2.827267,-1.55555860676532,0.010727990391485,-0.12873588469782
2.835786,-1.57701458754829,0.010727990391485,-0.10727990391485
2.847348,-1.66283851068017,0.010727990391485,-0.10727990391485
2.856431,-1.69502248185463,0.0750959327403949,-0.10727990391485
2.867556,-1.78084640498651,0.0429119615659399,-0.10727990391485
2.876482,-1.9310382704673,0.0429119615659399,-0.10727990391485
2.888026,-1.89885429929284,0.0965519135233649,-0.12873588469782
2.894381,-2.05977415516512,0.0965519135233649,-0.10727990391485
2.905203,-2.05977415516512,0.0965519135233649,-0.10727990391485
2.91607,-2.15632606868848,0.0965519135233649,-0.10727990391485
2.924929,-2.18851003986294,0.0965519135233649,-0.12873588469782
2.935795,-2.15632606868848,0.12873588469782,-0.10727990391485
2.94665,-2.32797391495224,0.12873588469782,-0.10727990391485
2.956999,-2.24214999182036,0.12873588469782,-0.10727990391485
2.96516,-2.20996602064591,0.12873588469782,-0.12873588469782
2.973662,-2.15632606868848,0.0965519135233649,-0.12873588469782
2.987461,-2.08123013594809,0.12873588469782,-0.10727990391485
2.996447,-2.18851003986294,0.0965519135233649,-0.10727990391485
3.007754,-2.08123013594809,0.0965519135233649,-0.10727990391485
