Time [s],Gauge Pressure [cmH2O],Inspiratory differenrtial pressure [cmH2O],Expiratory differenrtial pressure [cmH2O]
0,4.54866792598963,-0.118007894306335,-0.12873588469782
0.0238250000000022,4.63449184912151,-0.203831817438215,-0.12873588469782
0.0289700000000011,4.79541170499379,-0.182375836655245,-0.12873588469782
0.0300399999999996,4.97778754164903,-0.182375836655245,-0.12873588469782
0.0380630000000011,5.06361146478091,-0.182375836655245,-0.0750959327403949
0.0476969999999994,5.14943538791279,-0.203831817438215,-0.10727990391485
0.0586970000000022,5.33181122456804,-0.182375836655245,-0.0750959327403949
0.0702360000000013,5.43909112848289,-0.182375836655245,-0.0750959327403949
0.0764720000000025,5.47127509965734,-0.203831817438215,-0.10727990391485
0.0903470000000013,5.58928299396368,-0.182375836655245,-0.0750959327403949
0.100321000000001,5.7180188786615,-0.182375836655245,-0.10727990391485
0.109441000000004,5.73947485944447,-0.15019186548079,-0.10727990391485
0.118055000000005,5.83602677296783,-0.182375836655245,-0.12873588469782
0.127002000000005,5.9325786864912,-0.15019186548079,-0.10727990391485
0.140545000000003,5.98621863844862,-0.15019186548079,-0.0750959327403949
0.149275000000003,5.98621863844862,-0.15019186548079,-0.10727990391485
0.157964,6.01840260962308,-0.15019186548079,-0.0750959327403949
0.166879000000002,6.05058658079753,-0.15019186548079,-0.0750959327403949
0.175868000000001,6.10422653275496,-0.182375836655245,-0.10727990391485
0.187417000000003,6.22223442706129,-0.15019186548079,-0.12873588469782
0.198458000000002,6.34024232136763,-0.182375836655245,-0.0750959327403949
0.207405000000001,6.39388227332505,-0.15019186548079,-0.0750959327403949
0.218498000000004,6.47970619645693,-0.182375836655245,-0.0750959327403949
0.229627000000001,6.56553011958881,-0.203831817438215,-0.10727990391485
0.238083000000003,6.72644997546109,-0.182375836655245,-0.0750959327403949
0.248784000000001,6.81227389859297,-0.182375836655245,-0.0750959327403949
0.259236000000001,6.90882581211633,-0.182375836655245,-0.0536399519574249
0.269848000000003,7.02683370642267,-0.182375836655245,-0.160919855872275
0.278628000000005,7.11265762955455,-0.203831817438215,-0.10727990391485
0.287245000000006,7.19848155268643,-0.182375836655245,-0.0750959327403949
0.298383000000001,7.23066552386088,-0.203831817438215,-0.10727990391485
0.306739,7.34867341816722,-0.203831817438215,-0.12873588469782
0.318345000000001,7.37012939895019,-0.15019186548079,-0.10727990391485
0.327097000000002,7.40231337012464,-0.182375836655245,-0.12873588469782
0.338008000000002,7.47740930286504,-0.15019186548079,-0.10727990391485
0.349546000000004,7.53104925482246,-0.15019186548079,-0.0750959327403949
0.357615000000003,7.53104925482246,-0.182375836655245,-0.10727990391485
0.368807000000004,7.56323322599691,-0.182375836655245,-0.10727990391485
0.377074,7.58468920677988,-0.182375836655245,-0.12873588469782
0.387232000000004,7.6490571491288,-0.15019186548079,-0.12873588469782
0.398626,7.7885210242181,-0.15019186548079,-0.10727990391485
0.408766,7.85288896656701,-0.182375836655245,-0.12873588469782
0.416602000000005,7.85288896656701,-0.182375836655245,-0.0750959327403949
0.425562000000006,7.91725690891592,-0.15019186548079,-0.12873588469782
0.438000000000002,7.94944088009037,-0.15019186548079,-0.10727990391485
0.446441,8.0030808320478,-0.15019186548079,-0.10727990391485
0.457301000000001,8.0030808320478,-0.15019186548079,-0.0750959327403949
0.467381000000003,8.0030808320478,-0.15019186548079,-0.0750959327403949
0.479100000000003,8.06744877439671,-0.15019186548079,-0.10727990391485
0.487203000000001,8.06744877439671,-0.15019186548079,-0.0750959327403949
0.497137000000002,8.03526480322225,-0.15019186548079,-0.10727990391485
0.507894,8.06744877439671,-0.15019186548079,-0.10727990391485
0.518737000000002,8.08890475517968,-0.15019186548079,-0.10727990391485
0.529779000000005,8.06744877439671,-0.15019186548079,-0.10727990391485
0.538752000000002,8.08890475517968,-0.15019186548079,-0.10727990391485
0.547731000000006,8.08890475517968,-0.15019186548079,-0.0750959327403949
0.556683,8.12108872635413,-0.182375836655245,-0.12873588469782
0.568278000000007,8.15327269752859,-0.15019186548079,-0.12873588469782
0.579461000000002,8.15327269752859,-0.182375836655245,-0.12873588469782
0.587762000000005,8.17472867831156,-0.15019186548079,-0.10727990391485
0.59675,8.20691264948601,-0.182375836655245,-0.12873588469782
0.608041,8.23909662066047,-0.15019186548079,-0.12873588469782
0.617156000000001,8.23909662066047,-0.15019186548079,-0.12873588469782
0.628913000000004,8.20691264948601,-0.15019186548079,-0.12873588469782
0.637797000000006,8.17472867831156,-0.182375836655245,-0.160919855872275
0.649300000000004,8.23909662066047,-0.182375836655245,-0.10727990391485
0.658269000000004,8.23909662066047,-0.182375836655245,-0.10727990391485
0.669868000000001,8.27128059183493,-0.182375836655245,-0.0750959327403949
0.675965000000005,8.27128059183493,-0.203831817438215,-0.12873588469782
0.688872000000003,8.27128059183493,-0.182375836655245,-0.10727990391485
0.697928000000005,8.27128059183493,-0.182375836655245,-0.10727990391485
0.709541000000002,8.27128059183493,-0.203831817438215,-0.10727990391485
0.715542000000006,8.29273657261789,-0.203831817438215,-0.10727990391485
0.726980000000005,8.27128059183493,-0.182375836655245,-0.0536399519574249
0.737319000000006,8.29273657261789,-0.182375836655245,-0.12873588469782
0.748326000000006,8.27128059183493,-0.15019186548079,-0.10727990391485
0.756845000000006,8.27128059183493,-0.15019186548079,-0.10727990391485
0.765299000000006,8.27128059183493,-0.15019186548079,-0.10727990391485
0.778560000000006,8.27128059183493,-0.15019186548079,-0.10727990391485
0.789671000000006,8.27128059183493,-0.182375836655245,-0.12873588469782
0.795256000000002,8.23909662066047,-0.15019186548079,-0.10727990391485
0.806670000000004,8.20691264948601,-0.15019186548079,-0.10727990391485
0.818352000000004,8.23909662066047,-0.15019186548079,-0.0750959327403949
0.829747000000005,8.20691264948601,-0.15019186548079,-0.10727990391485
0.838767000000004,8.17472867831156,-0.15019186548079,-0.10727990391485
0.847761000000006,8.20691264948601,-0.118007894306335,-0.12873588469782
0.856799000000002,8.20691264948601,-0.15019186548079,-0.10727990391485
0.867661000000005,8.17472867831156,-0.15019186548079,-0.10727990391485
0.876638,8.17472867831156,-0.118007894306335,-0.0750959327403949
0.887660000000004,8.20691264948601,-0.15019186548079,-0.10727990391485
0.895627000000005,8.20691264948601,-0.118007894306335,-0.10727990391485
0.909227000000001,8.17472867831156,-0.118007894306335,-0.10727990391485
0.918330000000005,8.15327269752859,-0.118007894306335,-0.10727990391485
0.927282000000005,8.08890475517968,-0.118007894306335,-0.10727990391485
0.935758,8.06744877439671,-0.118007894306335,-0.12873588469782
0.946742,8.0030808320478,-0.15019186548079,-0.0750959327403949
0.957983000000006,7.91725690891592,-0.15019186548079,-0.0750959327403949
0.96696,7.87434494734998,-0.15019186548079,-0.12873588469782
0.978527,7.85288896656701,-0.15019186548079,-0.10727990391485
0.989443000000001,7.85288896656701,-0.15019186548079,-0.0750959327403949
0.995699999999999,7.87434494734998,-0.182375836655245,-0.12873588469782
1.008786,7.87434494734998,-0.15019186548079,-0.10727990391485
1.014898,7.98162485126483,-0.15019186548079,-0.10727990391485
1.027214,7.94944088009037,-0.15019186548079,-0.10727990391485
1.03594200000001,8.03526480322225,-0.15019186548079,-0.10727990391485
1.047048,8.08890475517968,-0.15019186548079,-0.12873588469782
1.05846200000001,8.06744877439671,-0.15019186548079,-0.0750959327403949
1.06705100000001,8.12108872635413,-0.15019186548079,-0.0750959327403949
1.078566,8.15327269752859,-0.182375836655245,-0.10727990391485
1.087153,8.15327269752859,-0.182375836655245,-0.0750959327403949
1.09871800000001,8.20691264948601,-0.15019186548079,-0.12873588469782
1.106873,8.15327269752859,-0.15019186548079,-0.0750959327403949
1.11751,8.17472867831156,-0.15019186548079,-0.0750959327403949
1.126442,8.17472867831156,-0.15019186548079,-0.0750959327403949
1.135665,8.20691264948601,-0.15019186548079,-0.10727990391485
1.14727300000001,8.17472867831156,-0.15019186548079,-0.12873588469782
1.158508,8.20691264948601,-0.182375836655245,-0.10727990391485
1.167479,8.17472867831156,-0.15019186548079,-0.10727990391485
1.179039,8.23909662066047,-0.15019186548079,-0.12873588469782
1.184327,8.27128059183493,-0.15019186548079,-0.10727990391485
1.195758,8.33564853418383,-0.15019186548079,-0.10727990391485
1.20672200000001,8.33564853418383,-0.15019186548079,-0.10727990391485
1.217627,8.33564853418383,-0.15019186548079,-0.10727990391485
1.22837800000001,8.38928848614126,-0.15019186548079,-0.10727990391485
1.236983,8.33564853418383,-0.15019186548079,-0.10727990391485
1.24599300000001,8.33564853418383,-0.15019186548079,-0.10727990391485
1.25626,8.36783250535829,-0.15019186548079,-0.12873588469782
1.264428,8.29273657261789,-0.15019186548079,-0.0750959327403949
1.27595100000001,8.29273657261789,-0.182375836655245,-0.10727990391485
1.28752,8.29273657261789,-0.15019186548079,-0.12873588469782
1.298259,8.23909662066047,-0.15019186548079,-0.10727990391485
1.30635,8.23909662066047,-0.15019186548079,-0.0750959327403949
1.316959,8.23909662066047,-0.182375836655245,-0.0750959327403949
1.327307,8.27128059183493,-0.15019186548079,-0.10727990391485
1.33778400000001,8.27128059183493,-0.15019186548079,-0.10727990391485
1.34665200000001,8.27128059183493,-0.15019186548079,-0.0750959327403949
1.35824400000001,8.20691264948601,-0.15019186548079,-0.0750959327403949
1.36464700000001,8.23909662066047,-0.15019186548079,-0.10727990391485
1.378273,8.29273657261789,-0.15019186548079,-0.12873588469782
1.387242,8.27128059183493,-0.15019186548079,-0.12873588469782
1.39575900000001,8.36783250535829,-0.15019186548079,-0.0750959327403949
1.406674,8.36783250535829,-0.15019186548079,-0.10727990391485
1.41564,8.36783250535829,-0.15019186548079,-0.10727990391485
1.426071,8.38928848614126,-0.15019186548079,-0.10727990391485
1.435315,8.42147245731571,-0.182375836655245,-0.0750959327403949
1.446217,8.38928848614126,-0.15019186548079,-0.0750959327403949
1.45518000000001,8.42147245731571,-0.15019186548079,-0.0750959327403949
1.468549,8.42147245731571,-0.15019186548079,-0.10727990391485
1.477527,8.45365642849017,-0.182375836655245,-0.0750959327403949
1.48651,8.42147245731571,-0.182375836655245,-0.0750959327403949
1.495486,8.42147245731571,-0.182375836655245,-0.10727990391485
1.50699100000001,8.42147245731571,-0.15019186548079,-0.10727990391485
1.515925,8.45365642849017,-0.182375836655245,-0.10727990391485
1.527408,8.38928848614126,-0.15019186548079,-0.10727990391485
1.535769,8.42147245731571,-0.182375836655245,-0.12873588469782
1.54692,8.38928848614126,-0.182375836655245,-0.10727990391485
1.55809600000001,8.36783250535829,-0.15019186548079,-0.10727990391485
1.564491,8.42147245731571,-0.15019186548079,-0.10727990391485
1.578788,8.38928848614126,-0.182375836655245,-0.12873588469782
1.58773100000001,8.36783250535829,-0.182375836655245,-0.10727990391485
1.596034,8.36783250535829,-0.182375836655245,-0.0750959327403949
1.608853,8.36783250535829,-0.182375836655245,-0.10727990391485
1.615239,8.29273657261789,-0.203831817438215,-0.0750959327403949
1.62586200000001,8.33564853418383,-0.182375836655245,-0.10727990391485
1.63458900000001,8.27128059183493,-0.182375836655245,-0.0750959327403949
1.645453,8.27128059183493,-0.182375836655245,-0.12873588469782
1.657079,8.23909662066047,-0.182375836655245,-0.10727990391485
1.665638,8.20691264948601,-0.182375836655245,-0.0750959327403949
1.67721,8.20691264948601,-0.118007894306335,-0.10727990391485
1.68617200000001,8.23909662066047,-0.118007894306335,-0.0750959327403949
1.697526,8.27128059183493,-0.118007894306335,-0.10727990391485
1.70653,8.23909662066047,-0.118007894306335,-0.10727990391485
1.71555,8.29273657261789,-0.118007894306335,-0.10727990391485
1.724003,8.29273657261789,-0.118007894306335,-0.10727990391485
1.735156,8.29273657261789,-0.118007894306335,-0.0536399519574249
1.745539,8.29273657261789,-0.118007894306335,-0.10727990391485
1.754077,8.29273657261789,-0.15019186548079,-0.12873588469782
1.765194,8.20691264948601,-0.118007894306335,-0.0750959327403949
1.778641,8.17472867831156,-0.118007894306335,-0.10727990391485
1.784209,8.15327269752859,-0.15019186548079,-0.10727990391485
1.795513,8.08890475517968,-0.182375836655245,-0.160919855872275
1.806969,8.0030808320478,-0.15019186548079,-0.12873588469782
1.81593700000001,7.98162485126483,-0.15019186548079,-0.10727990391485
1.827504,7.98162485126483,-0.182375836655245,-0.10727990391485
1.835143,7.94944088009037,-0.15019186548079,-0.0750959327403949
1.845661,8.0030808320478,-0.182375836655245,-0.0750959327403949
1.856983,8.0030808320478,-0.15019186548079,-0.12873588469782
1.865994,8.0030808320478,-0.15019186548079,-0.10727990391485
1.87735,8.06744877439671,-0.15019186548079,-0.0750959327403949
1.88635600000001,8.06744877439671,-0.15019186548079,-0.10727990391485
1.89740500000001,8.08890475517968,-0.15019186548079,-0.0750959327403949
1.9059,8.06744877439671,-0.15019186548079,-0.10727990391485
1.914844,8.03526480322225,-0.15019186548079,-0.0750959327403949
1.927993,8.0030808320478,-0.15019186548079,-0.0750959327403949
1.93705300000001,8.03526480322225,-0.15019186548079,-0.0750959327403949
1.94769700000001,7.98162485126483,-0.15019186548079,-0.0750959327403949
1.95625500000001,8.0030808320478,-0.15019186548079,-0.10727990391485
1.967418,7.98162485126483,-0.15019186548079,-0.10727990391485
1.976281,7.98162485126483,-0.182375836655245,-0.10727990391485
1.986774,7.91725690891592,-0.15019186548079,-0.10727990391485
1.997306,7.82070499539256,-0.182375836655245,-0.12873588469782
2.00628200000001,7.85288896656701,-0.182375836655245,-0.12873588469782
2.01784300000001,7.85288896656701,-0.182375836655245,-0.12873588469782
2.02686600000001,7.7885210242181,-0.182375836655245,-0.0750959327403949
2.035491,7.82070499539256,-0.182375836655245,-0.12873588469782
2.043803,7.82070499539256,-0.182375836655245,-0.10727990391485
2.05403800000001,7.82070499539256,-0.182375836655245,-0.10727990391485
2.06629400000001,7.76706504343513,-0.182375836655245,-0.10727990391485
2.076329,7.76706504343513,-0.182375836655245,-0.12873588469782
2.08456200000001,7.73488107226068,-0.182375836655245,-0.10727990391485
2.09518000000001,7.70269710108622,-0.15019186548079,-0.10727990391485
2.105952,7.67051312991177,-0.15019186548079,-0.0750959327403949
2.117541,7.61687317795434,-0.15019186548079,-0.0750959327403949
2.123932,7.67051312991177,-0.15019186548079,-0.10727990391485
2.135016,7.61687317795434,-0.15019186548079,-0.10727990391485
2.146539,7.61687317795434,-0.15019186548079,-0.12873588469782
2.15526000000001,7.58468920677988,-0.15019186548079,-0.10727990391485
2.16335400000001,7.56323322599691,-0.182375836655245,-0.10727990391485
2.176759,7.498865283648,-0.15019186548079,-0.0750959327403949
2.185163,7.47740930286504,-0.15019186548079,-0.10727990391485
2.196761,7.40231337012464,-0.15019186548079,-0.10727990391485
2.205321,7.34867341816722,-0.15019186548079,-0.0750959327403949
2.2143,7.31648944699276,-0.15019186548079,-0.0750959327403949
2.225908,7.26284949503534,-0.15019186548079,-0.0750959327403949
2.23395600000001,7.19848155268643,-0.15019186548079,-0.10727990391485
2.245375,7.16629758151197,-0.15019186548079,-0.10727990391485
2.256813,7.19848155268643,-0.15019186548079,-0.12873588469782
2.26555,7.144841600729,-0.15019186548079,-0.10727990391485
2.276485,7.08047365838009,-0.15019186548079,-0.0750959327403949
2.28646800000001,7.02683370642267,-0.15019186548079,-0.10727990391485
2.295359,6.99464973524821,-0.15019186548079,-0.12873588469782
2.30441200000001,6.94100978329079,-0.15019186548079,-0.0750959327403949
2.315854,6.94100978329079,-0.118007894306335,-0.0750959327403949
2.324814,6.90882581211633,-0.15019186548079,-0.10727990391485
2.33590700000001,6.90882581211633,-0.118007894306335,-0.10727990391485
2.346648,6.84445786976742,-0.118007894306335,-0.10727990391485
2.3556,6.84445786976742,-0.15019186548079,-0.12873588469782
2.36713,6.84445786976742,-0.118007894306335,-0.12873588469782
2.372298,6.81227389859297,-0.15019186548079,-0.12873588469782
2.383451,6.81227389859297,-0.15019186548079,-0.0750959327403949
2.396652,6.84445786976742,-0.118007894306335,-0.0750959327403949
2.405639,6.75863394663554,-0.118007894306335,-0.12873588469782
2.41720100000001,6.78008992741851,-0.203831817438215,-0.12873588469782
2.423741,6.75863394663554,-0.203831817438215,-0.10727990391485
2.436408,6.72644997546109,-0.182375836655245,-0.0750959327403949
2.443044,6.75863394663554,-0.182375836655245,-0.10727990391485
2.456982,6.72644997546109,-0.182375836655245,-0.10727990391485
2.463158,6.69426600428663,-0.182375836655245,-0.10727990391485
2.47424100000001,6.69426600428663,-0.182375836655245,-0.12873588469782
2.48537200000001,6.64062605232921,-0.182375836655245,-0.160919855872275
2.496531,6.60844208115475,-0.182375836655245,-0.0750959327403949
2.502939,6.60844208115475,-0.182375836655245,-0.0750959327403949
2.514343,6.64062605232921,-0.182375836655245,-0.12873588469782
2.525573,6.64062605232921,-0.203831817438215,-0.10727990391485
2.537154,6.64062605232921,-0.182375836655245,-0.0750959327403949
2.54357,6.54407413880584,-0.182375836655245,-0.12873588469782
2.554448,6.51189016763139,-0.182375836655245,-0.0750959327403949
2.563425,6.54407413880584,-0.182375836655245,-0.10727990391485
2.577213,6.51189016763139,-0.182375836655245,-0.0750959327403949
2.585695,6.51189016763139,-0.182375836655245,-0.10727990391485
2.594365,6.51189016763139,-0.182375836655245,-0.10727990391485
2.60552000000001,6.47970619645693,-0.182375836655245,-0.10727990391485
2.614483,6.39388227332505,-0.182375836655245,-0.10727990391485
2.626013,6.3616983021506,-0.15019186548079,-0.12873588469782
2.635017,6.24369040784426,-0.15019186548079,-0.10727990391485
2.643549,6.19005045588684,-0.15019186548079,-0.0750959327403949
2.65469700000001,6.15786648471238,-0.15019186548079,-0.12873588469782
2.663677,6.13641050392941,-0.15019186548079,-0.160919855872275
2.67514300000001,6.0720425615805,-0.15019186548079,-0.10727990391485
2.684041,6.01840260962308,-0.15019186548079,-0.0750959327403949
2.694806,6.01840260962308,-0.15019186548079,-0.0750959327403949
2.705368,6.01840260962308,-0.118007894306335,-0.0750959327403949
2.71616700000001,6.05058658079753,-0.15019186548079,-0.12873588469782
2.725147,6.05058658079753,-0.182375836655245,-0.12873588469782
2.73670000000001,6.01840260962308,-0.182375836655245,-0.0750959327403949
2.74570900000001,6.01840260962308,-0.182375836655245,-0.0750959327403949
2.756989,6.01840260962308,-0.182375836655245,-0.12873588469782
2.763327,6.01840260962308,-0.182375836655245,-0.10727990391485
2.774869,6.01840260962308,-0.182375836655245,-0.0750959327403949
2.78553100000001,6.01840260962308,-0.203831817438215,-0.10727990391485
2.79365300000001,5.95403466727417,-0.182375836655245,-0.10727990391485
2.80424900000001,5.9325786864912,-0.182375836655245,-0.10727990391485
2.81499,5.88966672492526,-0.182375836655245,-0.10727990391485
2.82590500000001,5.83602677296783,-0.182375836655245,-0.10727990391485
2.834429,5.80384280179338,-0.15019186548079,-0.10727990391485
2.845534,5.77165883061892,-0.15019186548079,-0.10727990391485
2.856391,5.7180188786615,-0.182375836655245,-0.10727990391485
2.86535000000001,5.6429229459211,-0.15019186548079,-0.10727990391485
2.876499,5.62146696513813,-0.15019186548079,-0.10727990391485
2.885175,5.58928299396368,-0.15019186548079,-0.10727990391485
2.894019,5.55709902278922,-0.15019186548079,-0.12873588469782
2.902998,5.5034590708318,-0.15019186548079,-0.12873588469782
2.91385200000001,5.5034590708318,-0.15019186548079,-0.12873588469782
2.925255,5.47127509965734,-0.15019186548079,-0.10727990391485
2.934241,5.43909112848289,-0.15019186548079,-0.12873588469782
2.943026,5.43909112848289,-0.15019186548079,-0.10727990391485
