Time [s],Gauge Pressure [cmH2O],Inspiratory differenrtial pressure [cmH2O],Expiratory differenrtial pressure [cmH2O]
0,13.2812521046584,-0.15019186548079,-0.0750959327403949
0.0222419999999985,12.8628604793905,-0.15019186548079,-0.10727990391485
0.0272590000000008,12.4015568925566,-0.182375836655245,-0.0750959327403949
0.028343999999997,11.9938932576802,-0.15019186548079,-0.0750959327403949
0.0331350000000015,11.6291415843697,-0.15019186548079,-0.10727990391485
0.0447839999999999,11.1892939783188,-0.15019186548079,-0.10727990391485
0.0540390000000031,10.727990391485,-0.15019186548079,-0.0750959327403949
0.065330000000003,10.2666868046511,-0.15019186548079,-0.10727990391485
0.0761060000000029,9.80538321781728,-0.15019186548079,-0.10727990391485
0.0850459999999984,9.25825570785154,-0.15019186548079,-0.10727990391485
0.0963690000000028,8.74331216906026,-0.15019186548079,-0.10727990391485
0.105122999999999,8.23909662066047,-0.118007894306335,-0.0750959327403949
0.111525999999998,7.85288896656701,-0.118007894306335,-0.10727990391485
0.125104,7.37012939895019,-0.118007894306335,-0.10727990391485
0.136167999999998,6.96246576407376,-0.118007894306335,-0.10727990391485
0.145111999999997,6.47970619645693,-0.118007894306335,-0.0750959327403949
0.154024,6.10422653275496,-0.118007894306335,-0.0750959327403949
0.16216,5.55709902278922,-0.118007894306335,-0.0750959327403949
0.173653000000002,5.03142749360646,-0.118007894306335,-0.0750959327403949
0.185209999999998,4.40920405090033,-0.118007894306335,-0.0750959327403949
0.193421000000001,3.82989256976014,-0.118007894306335,-0.0750959327403949
0.204917000000002,3.48659687723262,-0.118007894306335,-0.10727990391485
0.215214000000003,3.10038922313916,-0.118007894306335,-0.0750959327403949
0.224027999999997,2.73563754982867,-0.0965519135233649,-0.10727990391485
0.235601000000003,2.38161386690967,-0.0965519135233649,-0.0750959327403949
0.241981000000003,2.12414209751403,-0.0643679423489099,-0.10727990391485
0.253478999999999,1.72720645302908,-0.0429119615659399,-0.0750959327403949
0.265016000000003,1.40536674128453,0.0429119615659399,-0.0750959327403949
0.276060000000001,1.08352702953998,0.0750959327403949,-0.12873588469782
0.282421999999997,0.901151192884739,0.0965519135233649,-0.10727990391485
0.293833999999997,0.611495452314644,0.182375836655245,-0.12873588469782
0.302349999999997,0.407663634876429,0.23601578861267,-0.12873588469782
0.316550999999997,0.268199759787125,0.268199759787125,-0.12873588469782
0.324624,-0.0750959327403949,0.289655740570095,-0.10727990391485
0.345965999999997,-0.19310382704673,0.32183971174455,-0.10727990391485
0.346361000000002,-0.429119615659399,0.34329569252752,-0.10727990391485
0.366263000000004,-0.632951433097614,0.482759567616824,-0.12873588469782
0.368440999999997,-0.772415308186919,0.504215548399794,-0.19310382704673
0.372112000000001,-1.05134305836553,0.536399519574249,-0.0536399519574249
0.383557000000003,-1.0727990391485,0.590039471531674,-0.0750959327403949
0.393987000000003,-1.37318277011008,0.622223442706129,-0.12873588469782
0.402402000000002,-1.49119066441641,0.675863394663554,-0.10727990391485
0.413567999999998,-1.52337463559087,0.761687317795434,-0.12873588469782
0.424132,-1.78084640498651,0.783143298578404,-0.10727990391485
0.432704000000001,-1.96322224164175,0.922607173667709,-0.12873588469782
0.443322999999999,-2.05977415516512,0.922607173667709,-0.0536399519574249
0.454785000000001,-2.27433396299482,0.954791144842164,-0.0750959327403949
0.465395999999998,-2.05977415516512,1.00843109679959,-0.0750959327403949
0.474370999999998,-2.27433396299482,0.976247125625134,-0.0750959327403949
0.485005999999998,-2.38161386690967,1.06207104875701,-0.0750959327403949
0.493665999999997,-2.41379783808412,1.06207104875701,-0.19310382704673
0.502606999999998,-2.41379783808412,1.09425501993147,-0.0536399519574249
0.515757000000001,-2.41379783808412,1.16935095267186,-0.0536399519574249
0.521881,-2.76782152100313,1.16935095267186,-0.0750959327403949
0.535260000000001,-2.76782152100313,1.24444688541226,-0.160919855872275
0.541249999999998,-2.76782152100313,1.16935095267186,-0.0750959327403949
0.555123999999999,-2.97165333844134,1.24444688541226,-0.12873588469782
0.565165999999998,-2.61762965552234,1.24444688541226,-0.02145598078297
0.573562000000003,-2.85364544413501,1.26590286619523,-0.10727990391485
0.582390000000004,-2.56398970356491,1.24444688541226,-0.0536399519574249
0.593435999999997,-2.88582941530946,1.35172678932711,-0.0750959327403949
0.602429000000001,-2.76782152100313,1.35172678932711,-0.2145598078297
0.612921999999998,-2.97165333844134,1.26590286619523,-0.0750959327403949
0.623410999999997,-2.7892775017861,1.24444688541226,-0.0750959327403949
0.632336000000002,-2.499621761216,1.29808683736968,-0.12873588469782
0.642600000000002,-2.70345357865422,1.37318277011008,-0.10727990391485
0.653250999999997,-2.82146147296055,1.31954281815265,-0.02145598078297
0.663691,-2.70345357865422,1.37318277011008,-0.02145598078297
0.672623000000002,-2.7892775017861,1.26590286619523,-0.10727990391485
0.684195000000003,-2.53180573239046,1.29808683736968,-0.12873588469782
0.693112999999997,-2.29578994377779,1.24444688541226,-0.0750959327403949
0.704214,-2.53180573239046,1.29808683736968,-0.0750959327403949
0.712634999999999,-2.15632606868848,1.24444688541226,-0.160919855872275
0.724193999999997,-2.29578994377779,1.24444688541226,-0.12873588469782
0.732849999999999,-2.15632606868848,1.24444688541226,-0.02145598078297
0.744376000000003,-2.27433396299482,1.24444688541226,-0.10727990391485
0.752113999999999,-2.53180573239046,1.24444688541226,-0.12873588469782
0.760708999999999,-1.96322224164175,1.26590286619523,-0.160919855872275
0.772227999999998,-2.27433396299482,1.20153492384632,-0.10727990391485
0.783093000000001,-2.24214999182036,1.29808683736968,-0.12873588469782
0.794500999999997,-2.11341410712254,1.24444688541226,-0.10727990391485
0.803471999999999,-1.84521434733542,1.16935095267186,-0.0750959327403949
0.812147000000003,-1.78084640498651,1.20153492384632,-0.10727990391485
0.823177999999999,-1.66283851068017,1.16935095267186,-0.0536399519574249
0.834240000000001,-1.86667032811839,1.16935095267186,-0.10727990391485
0.843007,-1.55555860676532,1.14789497188889,-0.10727990391485
0.851792000000003,-1.37318277011008,1.14789497188889,-0.10727990391485
0.865254,-1.37318277011008,1.09425501993147,-0.0750959327403949
0.874180000000003,-1.0727990391485,1.02988707758256,-0.0750959327403949
0.883147999999998,-1.16935095267186,1.06207104875701,-0.12873588469782
0.892132000000004,-0.686591385055039,1.00843109679959,-0.0750959327403949
0.903682000000003,-0.600767461923159,0.954791144842164,-0.160919855872275
0.912666999999999,-0.718775356229494,0.868967221710284,-0.10727990391485
0.924191,-0.34329569252752,0.783143298578404,-0.12873588469782
0.933140000000002,-0.139463875089305,0.729503346620979,-0.160919855872275
0.943510000000003,0.032183971174455,0.675863394663554,-0.12873588469782
0.952545000000001,0.289655740570095,0.697319375446524,-0.160919855872275
0.962924999999998,0.23601578861267,0.622223442706129,-0.10727990391485
0.971550000000001,0.375479663701974,0.590039471531674,-0.10727990391485
0.982412000000004,0.697319375446524,0.590039471531674,-0.0536399519574249
0.993608999999999,0.579311481140189,0.536399519574249,-0.0750959327403949
1.002556,0.557855500357219,0.536399519574249,-0.0536399519574249
1.014072,0.729503346620979,0.568583490748704,-0.12873588469782
1.022534,0.611495452314644,0.482759567616824,-0.12873588469782
1.034049,0.697319375446524,0.482759567616824,-0.10727990391485
1.045223,0.815327269752859,0.407663634876429,-0.10727990391485
1.051597,0.997703106408104,0.407663634876429,-0.0750959327403949
1.061655,0.976247125625134,0.34329569252752,-0.0750959327403949
1.074185,1.23371889502077,0.34329569252752,-0.0750959327403949
1.082383,1.43755071245899,0.32183971174455,-0.10727990391485
1.090873,1.66283851068017,0.268199759787125,-0.10727990391485
1.104691,1.89885429929284,0.268199759787125,-0.10727990391485
1.113618,2.09195812633957,0.2145598078297,-0.12873588469782
1.124906,2.41379783808412,0.182375836655245,-0.10727990391485
1.133832,2.64981362669679,0.12873588469782,-0.10727990391485
1.142786,2.7892775017861,0.0965519135233649,-0.12873588469782
1.153414,3.16475716548807,0.0750959327403949,-0.10727990391485
1.162323,3.33640501175183,0.010727990391485,-0.10727990391485
1.173241,3.48659687723262,-0.010727990391485,-0.10727990391485
1.181385,3.62606075232193,-0.0429119615659399,-0.10727990391485
1.192228,3.82989256976014,-0.0965519135233649,-0.0750959327403949
1.20344,4.05518036798132,-0.0965519135233649,-0.0750959327403949
1.214658,4.25901218541954,-0.118007894306335,-0.0750959327403949
1.2207,4.40920405090033,-0.15019186548079,-0.0750959327403949
1.23191,4.61303586833854,-0.182375836655245,-0.0750959327403949
1.243424,4.75249974342785,-0.182375836655245,-0.0750959327403949
1.252377,5.00997151282349,-0.15019186548079,-0.0750959327403949
1.261101,5.41763514769992,-0.118007894306335,-0.0536399519574249
1.273973,5.98621863844862,-0.118007894306335,-0.10727990391485
1.284549,6.64062605232921,-0.118007894306335,-0.0536399519574249
1.294132,7.37012939895019,-0.0965519135233649,-0.0536399519574249
1.304059,8.23909662066047,-0.15019186548079,-0.02145598078297
1.312882,9.01151192884739,-0.118007894306335,-0.02145598078297
1.321857,9.91266312173213,-0.118007894306335,-0.02145598078297
1.332922,10.6207104875701,-0.118007894306335,-0.02145598078297
1.34189,11.2751179014507,-0.118007894306335,0
1.353076,11.7793334498505,-0.15019186548079,0
1.361755,12.165541103944,-0.118007894306335,-0.0536399519574249
1.372691,12.5839327292119,-0.118007894306335,-0.02145598078297
1.383105,13.0023243544798,-0.118007894306335,-0.02145598078297
1.391689,13.1739722007436,-0.118007894306335,-0.02145598078297
1.403215,13.4743559317051,-0.118007894306335,-0.02145598078297
1.41388,13.7425556914923,-0.15019186548079,0
1.422514,14.0536674128453,-0.118007894306335,-0.02145598078297
1.431427,14.2574992302835,-0.118007894306335,-0.02145598078297
1.442972,14.4935150188962,-0.15019186548079,-0.02145598078297
1.453957,14.6866188459429,-0.118007894306335,-0.02145598078297
1.462326,14.8260827210323,-0.118007894306335,-0.02145598078297
1.473489,15.0942824808194,-0.118007894306335,-0.02145598078297
1.479668,15.2981142982576,-0.118007894306335,-0.02145598078297
1.490769,15.4697621445214,-0.118007894306335,-0.02145598078297
1.504489,15.6521379811766,-0.118007894306335,-0.02145598078297
1.513434,15.8345138178318,-0.118007894306335,-0.02145598078297
1.522404,16.0168896544871,-0.118007894306335,-0.02145598078297
1.531357,16.2207214719253,-0.118007894306335,-0.0536399519574249
1.542712,16.435281279755,-0.118007894306335,-0.02145598078297
1.551663,16.6283851068017,-0.118007894306335,0
1.562698,16.8214889338485,-0.118007894306335,-0.02145598078297
1.57318,16.9716807993292,-0.118007894306335,-0.02145598078297
1.581478,17.0896886936356,-0.118007894306335,-0.02145598078297
1.592554,17.2398805591164,-0.118007894306335,-0.02145598078297
1.60336,17.3471604630312,-0.118007894306335,0
1.612126,17.4651683573376,-0.118007894306335,0
1.623002,17.6153602228183,-0.118007894306335,0
1.634363,17.7011841459502,-0.118007894306335,0
1.64332,17.872831992214,-0.118007894306335,0
1.652294,17.9264719441714,-0.118007894306335,0
1.661253,18.0444798384777,-0.118007894306335,-0.02145598078297
1.672775,18.1624877327841,-0.118007894306335,0
1.683891,18.2161276847415,-0.118007894306335,0
1.690044,18.248311655916,-0.118007894306335,0
1.701308,18.3341355790478,-0.118007894306335,-0.02145598078297
1.712639,18.3663195502223,-0.118007894306335,0
1.721594,18.4521434733542,-0.118007894306335,-0.02145598078297
1.733174,18.5165114157031,-0.118007894306335,-0.02145598078297
1.742005,18.5486953868775,-0.118007894306335,0
1.753498,18.6667032811839,-0.118007894306335,-0.02145598078297
1.762441,18.7203432331413,-0.118007894306335,0
1.774086,18.7847111754902,-0.15019186548079,0
1.78046,18.8168951466647,-0.15019186548079,0
1.789065,18.8490791178391,-0.15019186548079,-0.02145598078297
1.802211,18.8812630890136,-0.15019186548079,0
1.810224,18.8812630890136,-0.15019186548079,0
1.820829,18.934903040971,-0.15019186548079,-0.02145598078297
1.832109,18.934903040971,-0.15019186548079,0
1.840847,18.9885429929284,-0.182375836655245,-0.02145598078297
1.852427,19.0207269641029,-0.15019186548079,0
1.860833,19.0529109352773,-0.182375836655245,0
1.869778,19.1494628488007,-0.15019186548079,0
1.883816,19.1816468199752,-0.118007894306335,0
1.892521,19.2031028007581,-0.118007894306335,0
1.900998,19.2031028007581,-0.118007894306335,-0.02145598078297
1.911079,19.267470743107,-0.118007894306335,0
1.921797,19.3211106950645,-0.118007894306335,-0.02145598078297
1.930728,19.3532946662389,-0.118007894306335,-0.02145598078297
1.941769,19.3854786374134,-0.118007894306335,0
1.950714,19.4391185893708,-0.118007894306335,-0.02145598078297
1.962237,19.4391185893708,-0.118007894306335,-0.02145598078297
1.971171,19.5249425125027,-0.118007894306335,-0.02145598078297
1.982671,19.5249425125027,-0.15019186548079,-0.02145598078297
1.991615,19.5249425125027,-0.15019186548079,-0.02145598078297
2.00262,19.5571264836771,-0.15019186548079,-0.0536399519574249
2.011282,19.5893104548516,-0.15019186548079,-0.02145598078297
2.022627,19.5893104548516,-0.15019186548079,-0.02145598078297
2.031558,19.6107664356346,-0.182375836655245,-0.0536399519574249
2.043117,19.642950406809,-0.15019186548079,-0.02145598078297
2.052069,19.6751343779835,-0.15019186548079,-0.0536399519574249
2.063597,19.6965903587664,-0.182375836655245,-0.0536399519574249
2.070018,19.7287743299409,-0.15019186548079,-0.0750959327403949
2.081015,19.7287743299409,-0.15019186548079,-0.0536399519574249
2.089465,19.7287743299409,-0.118007894306335,-0.0536399519574249
2.100574,19.7287743299409,-0.118007894306335,-0.0750959327403949
2.112117,19.7716862915068,-0.15019186548079,-0.0536399519574249
2.119979,19.8145982530728,-0.118007894306335,-0.0750959327403949
2.131313,19.8682382050302,-0.118007894306335,-0.0750959327403949
2.142407,19.8682382050302,-0.118007894306335,-0.0536399519574249
2.151206,19.9004221762046,-0.15019186548079,-0.0750959327403949
2.162671,19.9004221762046,-0.118007894306335,-0.0536399519574249
2.171612,19.9218781569876,-0.118007894306335,-0.0536399519574249
2.183158,19.9004221762046,-0.118007894306335,-0.0750959327403949
2.192104,19.9540621281621,-0.15019186548079,-0.0750959327403949
2.200622,19.9540621281621,-0.15019186548079,-0.0750959327403949
2.21116,19.9540621281621,-0.15019186548079,-0.0536399519574249
2.221438,19.9540621281621,-0.15019186548079,-0.0536399519574249
2.232013,19.9540621281621,-0.15019186548079,-0.0536399519574249
2.240815,19.9218781569876,-0.15019186548079,-0.0536399519574249
2.251379,19.9218781569876,-0.15019186548079,-0.0750959327403949
2.262478,19.9540621281621,-0.15019186548079,-0.0536399519574249
2.270632,19.9862460993365,-0.15019186548079,-0.0536399519574249
2.281855,19.9218781569876,-0.15019186548079,-0.0536399519574249
2.288184,19.9540621281621,-0.15019186548079,-0.0536399519574249
2.30042,19.9540621281621,-0.15019186548079,-0.0536399519574249
2.309926,19.9540621281621,-0.15019186548079,-0.0750959327403949
2.323251,19.9540621281621,-0.15019186548079,-0.0750959327403949
2.331093,19.9218781569876,-0.182375836655245,-0.0536399519574249
2.339724,19.9218781569876,-0.15019186548079,-0.0536399519574249
2.350726,19.9218781569876,-0.15019186548079,-0.0536399519574249
2.362176,19.9862460993365,-0.15019186548079,-0.0750959327403949
2.371128,20.039886051294,-0.15019186548079,-0.0536399519574249
2.382159,20.039886051294,-0.15019186548079,-0.0536399519574249
2.390543,20.039886051294,-0.15019186548079,-0.0536399519574249
2.401029,20.1042539936429,-0.118007894306335,-0.0750959327403949
2.412546,20.0720700224684,-0.15019186548079,-0.0536399519574249
2.420347,20.039886051294,-0.118007894306335,-0.0750959327403949
2.431426,19.9862460993365,-0.15019186548079,-0.10727990391485
2.442002,19.9862460993365,-0.118007894306335,-0.10727990391485
2.450437,19.9540621281621,-0.118007894306335,-0.0750959327403949
2.461115,19.9862460993365,-0.118007894306335,-0.10727990391485
2.469889,19.9540621281621,-0.118007894306335,-0.10727990391485
2.480612,19.9218781569876,-0.118007894306335,-0.10727990391485
2.489065,19.9218781569876,-0.118007894306335,-0.10727990391485
2.500065,19.9004221762046,-0.118007894306335,-0.0750959327403949
2.511687,19.9004221762046,-0.0965519135233649,-0.10727990391485
2.522948,19.8682382050302,-0.0965519135233649,-0.0750959327403949
2.531927,19.8682382050302,-0.0965519135233649,-0.0750959327403949
2.540736,19.8682382050302,-0.0965519135233649,-0.0750959327403949
2.549674,19.8682382050302,-0.0965519135233649,-0.0750959327403949
2.560977,19.8682382050302,-0.0965519135233649,-0.0536399519574249
2.569911,19.8360542338557,-0.0965519135233649,-0.0536399519574249
2.581307,19.8360542338557,-0.0965519135233649,-0.0536399519574249
2.590016,19.8360542338557,-0.118007894306335,-0.0750959327403949
2.601583,19.8145982530728,-0.0965519135233649,-0.0750959327403949
2.612717,19.8145982530728,-0.118007894306335,-0.0750959327403949
2.621665,19.8145982530728,-0.118007894306335,-0.0750959327403949
2.63062,19.7716862915068,-0.118007894306335,-0.0750959327403949
2.639014,19.7287743299409,-0.118007894306335,-0.0536399519574249
2.650101,19.7287743299409,-0.118007894306335,-0.0750959327403949
2.66165,19.7287743299409,-0.118007894306335,-0.0750959327403949
2.670607,19.6965903587664,-0.15019186548079,-0.0536399519574249
2.681111,19.642950406809,-0.118007894306335,-0.0536399519574249
2.689749,19.6107664356346,-0.118007894306335,-0.0536399519574249
2.700668,19.6107664356346,-0.118007894306335,-0.0536399519574249
2.709584,19.642950406809,-0.118007894306335,-0.0750959327403949
2.721129,19.6107664356346,-0.118007894306335,-0.0536399519574249
2.729762,19.6107664356346,-0.118007894306335,-0.0750959327403949
2.7409,19.5893104548516,-0.118007894306335,-0.0750959327403949
2.752414,19.5571264836771,-0.118007894306335,-0.0750959327403949
2.758452,19.4927585413282,-0.118007894306335,-0.0750959327403949
2.769171,19.4927585413282,-0.118007894306335,-0.0750959327403949
2.782616,19.4391185893708,-0.15019186548079,-0.0750959327403949
2.788512,19.4391185893708,-0.118007894306335,-0.0750959327403949
2.79961,19.4391185893708,-0.118007894306335,-0.0750959327403949
2.80867,19.4069346181963,-0.118007894306335,-0.0750959327403949
2.817643,19.3854786374134,-0.182375836655245,-0.0536399519574249
2.831681,19.3854786374134,-0.15019186548079,-0.0750959327403949
2.840245,19.3211106950645,-0.15019186548079,-0.0750959327403949
2.848688,19.3532946662389,-0.15019186548079,-0.0750959327403949
2.862236,19.3211106950645,-0.15019186548079,-0.0536399519574249
2.868566,19.28892672389,-0.15019186548079,-0.0750959327403949
2.88274,19.267470743107,-0.15019186548079,-0.0750959327403949
2.889056,19.267470743107,-0.15019186548079,-0.0750959327403949
2.900447,19.2352867719326,-0.15019186548079,-0.0750959327403949
2.909453,19.2031028007581,-0.15019186548079,-0.0750959327403949
2.920903,19.2031028007581,-0.118007894306335,-0.0536399519574249
2.93137,19.1816468199752,-0.118007894306335,-0.0536399519574249
2.940268,19.1065508872348,-0.118007894306335,-0.0750959327403949
2.948698,19.0529109352773,-0.118007894306335,-0.02145598078297
2.962213,18.9670870121455,-0.118007894306335,-0.0750959327403949
2.968283,18.9670870121455,-0.118007894306335,-0.0536399519574249
2.981857,18.9027190697965,-0.118007894306335,-0.0750959327403949
2.99091,18.8490791178391,-0.118007894306335,-0.0750959327403949
3.002378,18.8168951466647,-0.118007894306335,-0.0750959327403949
3.008754,18.8168951466647,-0.118007894306335,-0.0750959327403949
3.020218,18.7847111754902,-0.118007894306335,-0.10727990391485
3.029165,18.7203432331413,-0.118007894306335,-0.10727990391485
3.040743,18.6667032811839,-0.118007894306335,-0.12873588469782
3.049688,18.5701513676605,-0.118007894306335,-0.12873588469782
