Time [s],Gauge Pressure,Inspiratory differenrtial pressure,Expiratory differenrtial pressure
0,10149,8178,8182
0.0031680000000005,10157,8178,8185
0.00734500000000082,10160,8178,8185
0.0232640000000011,10168,8178,8185
0.0279240000000005,10170,8178,8185
0.0289650000000012,10177,8178,8185
0.0342760000000002,10182,8178,8185
0.0448090000000008,10190,8178,8185
0.0552500000000009,10193,8178,8185
0.0659620000000007,10196,8178,8185
0.073875000000001,10201,8178,8185
0.0846,10212,8178,8185
0.0958050000000004,10218,8178,8185
0.104778000000001,10229,8178,8185
0.115651,10249,8178,8185
0.126799,10266,8178,8185
0.133190000000001,10279,8178,8187
0.146858,10298,8178,8187
0.155245000000001,10316,8178,8185
0.164990000000001,10335,8178,8187
0.176399,10346,8178,8185
0.185253000000001,10360,8178,8185
0.194229,10371,8178,8185
0.204859000000001,10377,8178,8185
0.216415000000001,10380,8178,8185
0.22551,10371,8178,8185
0.234437,10366,8181,8185
0.243424000000001,10351,8181,8185
0.254064000000001,10341,8181,8180
0.265228,10330,8181,8182
0.274011000000002,10307,8181,8182
0.284682,10287,8181,8185
0.295916,10274,8181,8182
0.304895,10260,8178,8180
0.316210000000002,10244,8181,8177
0.327116,10224,8181,8177
0.333480000000002,10209,8181,8177
0.347626000000002,10193,8181,8177
0.353158000000001,10180,8181,8177
0.364209000000002,10165,8181,8182
0.374566999999999,10157,8181,8177
0.385573000000001,10143,8181,8180
0.394010000000002,10130,8181,8180
0.402995000000001,10118,8181,8182
0.415877000000002,10112,8181,8182
0.423483000000001,10104,8181,8180
0.442873000000002,10090,8178,8182
0.443260000000002,10085,8181,8182
0.472819000000001,10082,8181,8182
0.475268,10074,8181,8182
0.476215,10071,8181,8182
0.484845,10071,8181,8182
0.495654999999999,10068,8181,8182
0.503613000000001,10066,8181,8185
0.514647,10068,8181,8180
0.526222000000001,10063,8181,8182
0.535216000000002,10066,8181,8182
0.546893000000001,10068,8181,8185
0.553249000000001,10071,8178,8185
0.564367000000001,10074,8178,8182
0.575015,10076,8178,8182
0.583446000000002,10076,8178,8185
0.594626999999999,10079,8178,8182
0.605722,10082,8178,8185
0.614708,10085,8178,8185
0.626300000000001,10090,8178,8182
0.635273000000002,10095,8178,8185
0.646827000000002,10101,8178,8182
0.653216,10104,8178,8182
0.664767000000001,10109,8178,8185
0.673659000000001,10112,8178,8182
0.684477000000001,10109,8178,8185
0.695574000000001,10104,8178,8185
0.704592000000002,10104,8178,8185
0.716146999999999,10101,8178,8182
0.725132000000002,10101,8178,8180
0.731504000000001,10095,8178,8180
0.743045000000002,10093,8178,8180
0.756524000000002,10093,8178,8180
0.765492999999999,10087,8178,8177
0.774007000000001,10085,8178,8180
0.785981,10085,8178,8177
0.793995000000002,10076,8178,8180
0.802647,10076,8178,8180
0.816300000000002,10071,8175,8185
0.822732999999999,10074,8178,8185
0.833907,10074,8178,8182
0.844632000000001,10068,8178,8182
0.853577000000001,10068,8178,8182
0.865129,10068,8181,8182
0.875672000000002,10066,8181,8182
0.884654000000001,10060,8181,8182
0.895803000000001,10063,8181,8182
0.901679000000001,10057,8181,8182
0.912805000000002,10055,8181,8182
0.924287,10057,8181,8185
0.932846000000001,10052,8181,8182
0.943999000000002,10055,8181,8185
0.955646000000002,10055,8181,8180
0.964646999999999,10055,8178,8185
0.976215,10052,8178,8182
0.985208,10057,8178,8185
0.994091000000001,10063,8178,8182
1.002196,10060,8178,8185
1.013606,10060,8178,8182
1.024642,10066,8178,8180
1.033554,10066,8178,8182
1.045204,10066,8178,8182
1.054206,10068,8178,8182
1.065922,10066,8178,8185
1.072419,10071,8178,8182
1.083485,10071,8178,8182
1.093844,10074,8178,8180
1.104733,10076,8178,8182
1.115694,10085,8178,8182
1.124537,10085,8178,8187
1.135909,10093,8178,8182
1.144913,10098,8178,8182
1.156389,10095,8178,8185
1.16278,10098,8178,8182
1.17401,10098,8178,8185
1.182746,10101,8178,8182
1.196256,10098,8175,8182
1.201991,10104,8178,8185
1.212646,10104,8178,8185
1.221516,10106,8178,8185
1.233097,10109,8178,8185
1.241875,10112,8178,8182
1.25295,10118,8178,8185
1.264474,10126,8178,8185
1.275503,10133,8178,8185
1.2844,10141,8178,8185
1.295603,10143,8178,8182
1.304146,10154,8178,8185
1.315935,10160,8178,8182
1.324316,10165,8178,8185
1.33297,10174,8178,8185
1.34189,10180,8178,8187
1.355046,10182,8178,8185
1.364031,10188,8178,8185
1.375168,10190,8178,8185
1.384124,10199,8178,8185
1.395673,10204,8178,8185
1.40417,10204,8178,8185
1.412624,10207,8178,8185
1.420458,10212,8178,8182
1.431838,10215,8178,8180
1.445364,10221,8181,8182
1.45437,10221,8178,8182
1.463417,10224,8178,8182
1.472404,10233,8178,8182
1.484032,10236,8178,8180
1.492618,10238,8178,8182
1.504192,10241,8178,8182
1.51487,10247,8178,8180
1.523116,10255,8178,8180
1.534439,10255,8178,8180
1.543049,10257,8178,8182
1.554681,10263,8178,8182
1.561098,10268,8178,8182
1.574998,10274,8178,8182
1.583977,10276,8178,8182
1.59034,10276,8178,8177
1.601872,10282,8178,8182
1.615051,10285,8178,8182
1.623953,10285,8178,8182
1.631738,10282,8178,8180
1.642773,10287,8178,8185
1.653818,10279,8178,8185
1.66277,10285,8178,8185
1.673978,10285,8178,8180
1.682143,10282,8178,8185
1.693303,10282,8178,8185
1.704434,10282,8181,8182
1.71258,10285,8181,8185
1.723303,10282,8181,8185
1.732133,10287,8181,8182
1.742714,10285,8181,8182
1.754188,10287,8181,8182
1.762981,10287,8181,8182
1.774031,10290,8181,8182
1.78303,10287,8181,8182
1.794461,10293,8181,8180
1.803319,10290,8181,8182
1.814647,10293,8181,8180
1.823634,10290,8181,8182
1.83521,10290,8181,8182
1.841384,10293,8181,8182
1.852283,10293,8181,8185
1.862843,10290,8181,8185
1.873508,10287,8181,8182
1.881722,10285,8181,8185
1.893246,10282,8181,8185
1.904384,10276,8181,8185
1.91337,10271,8181,8185
1.924805,10271,8181,8182
1.93123,10266,8181,8185
1.942322,10255,8181,8185
1.950666,10247,8181,8180
1.962026,10238,8181,8182
1.973164,10229,8181,8182
1.982157,10221,8181,8185
1.993296,10218,8181,8185
2.004801,10212,8181,8185
2.011208,10209,8178,8185
2.02263,10207,8178,8185
2.031591,10201,8178,8182
2.043149,10193,8178,8185
2.052114,10190,8178,8182
2.063522,10182,8175,8185
2.072046,10180,8178,8182
2.083536,10177,8178,8182
2.09242,10174,8178,8182
2.103733,10168,8178,8182
2.112688,10168,8178,8182
2.123586,10170,8178,8182
2.134279,10170,8178,8185
2.140669,10168,8178,8182
2.151899,10170,8175,8185
2.163017,10168,8178,8182
2.174178,10168,8178,8182
2.180127,10168,8178,8185
2.190638,10168,8178,8185
2.201875,10170,8178,8185
2.210865,10170,8178,8182
2.222455,10174,8178,8182
2.23144,10174,8178,8182
2.242982,10177,8178,8185
2.251937,10182,8178,8185
2.262627,10182,8178,8185
2.273797,10185,8178,8182
2.282559,10188,8178,8185
2.29338,10188,8175,8182
2.302135,10188,8178,8185
2.311115,10188,8178,8182
2.322339,10185,8178,8182
2.330518,10185,8178,8185
2.341922,10185,8178,8185
2.353557,10188,8178,8187
2.362537,10190,8178,8182
2.373981,10193,8178,8187
2.382955,10193,8178,8182
2.394309,10196,8178,8182
2.40097,10196,8178,8185
2.412492,10199,8178,8182
2.421425,10196,8178,8182
2.433034,10196,8178,8185
2.442014,10193,8178,8185
2.453669,10193,8175,8185
2.462743,10190,8178,8185
2.471573,10190,8178,8185
2.480466,10185,8178,8185
2.4906,10185,8178,8185
2.503718,10182,8178,8187
2.512371,10180,8178,8185
2.521127,10180,8178,8185
2.530218,10170,8175,8182
2.543296,10170,8178,8182
2.551751,10165,8178,8185
2.563286,10162,8178,8185
2.569632,10160,8178,8182
2.583824,10160,8178,8185
2.592751,10154,8178,8182
2.603864,10152,8178,8185
2.609569,10152,8178,8182
2.620914,10152,8178,8185
2.629899,10152,8178,8185
2.641446,10152,8178,8182
2.652778,10152,8178,8182
2.661211,10152,8178,8177
2.672521,10152,8178,8182
2.683756,10149,8178,8182
2.689916,10149,8178,8180
2.700647,10149,8178,8180
2.712062,10143,8178,8182
2.721062,10141,8178,8182
2.732661,10143,8178,8182
2.741641,10146,8178,8182
2.753257,10141,8178,8180
2.76222,10141,8178,8185
2.77379,10141,8178,8185
2.78017,10141,8178,8182
2.791988,10138,8178,8185
2.800906,10141,8178,8185
2.812503,10138,8178,8185
2.8187,10138,8178,8185
2.832784,10138,8178,8182
2.841272,10138,8178,8185
2.852839,10135,8178,8182
2.8613,10141,8178,8185
2.870363,10141,8178,8185
2.881918,10141,8175,8185
2.890789,10141,8178,8185
2.901291,10143,8178,8185
2.909427,10149,8178,8182
2.920397,10149,8178,8182
2.93111,10146,8178,8182
2.942422,10152,8178,8185
2.951321,10149,8178,8185
2.962511,10154,8178,8185
2.971017,10154,8175,8185
2.982491,10157,8178,8185
2.990857,10160,8178,8185
2.999865,10165,8178,8185
3.011228,10170,8178,8185
3.018956,10177,8178,8185
3.030419,10185,8178,8185
3.040236,10188,8178,8182
3.051302,10193,8178,8185
3.060271,10199,8178,8185
3.071607,10207,8178,8185
3.080583,10215,8178,8185
3.092085,10218,8178,8185
3.101019,10227,8178,8182
3.111538,10238,8178,8185
3.12145,10247,8178,8185
3.130183,10252,8178,8185
3.141772,10263,8178,8182
3.150697,10271,8178,8185
3.162228,10274,8178,8185
3.168633,10282,8181,8182
3.182753,10285,8181,8180
3.191834,10287,8181,8185
3.202845,10287,8181,8182
3.211935,10290,8181,8180
3.217867,10287,8178,8182
3.231579,10290,8181,8182
3.24282,10293,8181,8180
3.249228,10293,8181,8180
3.260181,10295,8181,8182
3.270696,10295,8178,8180
3.279758,10301,8178,8180
3.290442,10301,8178,8182
3.299741,10303,8178,8180
3.310959,10310,8178,8182
3.322197,10316,8178,8180
3.328268,10316,8178,8180
3.339334,10327,8178,8182
3.350918,10330,8178,8182
3.359988,10335,8178,8182
3.37147,10335,8181,8182
3.380439,10341,8181,8180
3.392033,10343,8181,8180
3.401074,10346,8181,8180
3.412242,10349,8178,8182
3.418419,10354,8181,8180
3.431649,10360,8181,8182
3.439952,10357,8181,8182
3.451238,10357,8181,8182
3.459474,10354,8181,8182
3.470889,10354,8181,8180
3.481864,10351,8178,8185
3.490656,10346,8178,8185
3.502219,10346,8178,8187
3.508627,10341,8178,8185
3.519757,10338,8178,8182
3.530791,10335,8178,8185
3.541729,10333,8178,8185
3.550485,10333,8178,8185
3.558884,10333,8178,8182
3.569945,10330,8178,8182
3.578986,10324,8181,8182
3.590553,10324,8181,8180
3.599573,10322,8181,8180
3.610642,10327,8181,8182
3.621605,10327,8181,8180
3.630355,10330,8181,8182
3.641447,10330,8181,8182
3.649847,10333,8181,8180
3.661428,10330,8181,8182
3.669645,10333,8181,8185
3.680939,10335,8181,8185
3.692057,10335,8183,8182
3.701071,10338,8183,8185
3.712549,10333,8183,8182
3.719104,10335,8183,8185
3.73065,10338,8183,8182
3.739624,10338,8183,8185
3.750473,10341,8183,8185
3.761097,10341,8183,8185
3.770089,10343,8183,8185
3.781535,10343,8183,8182
3.790202,10346,8181,8185
3.797659,10343,8181,8185
3.811107,10349,8181,8185
3.820082,10349,8181,8182
3.831537,10346,8181,8185
3.840231,10346,8181,8187
3.848585,10349,8181,8185
3.861523,10354,8178,8185
3.87053,10351,8181,8185
3.882161,10354,8181,8185
3.88856,10357,8181,8185
3.900139,10363,8181,8185
3.909125,10360,8181,8185
3.920661,10363,8181,8185
3.929649,10360,8181,8187
3.941216,10360,8181,8182
3.949943,10360,8181,8185
3.960963,10360,8181,8182
3.967327,10360,8181,8185
3.981253,10360,8181,8182
3.990285,10357,8181,8180
4.001462,10357,8178,8187
4.011656,10357,8178,8182
4.01804,10360,8178,8187
4.029157,10360,8178,8185
4.040317,10363,8178,8185
4.049269,10369,8175,8182
4.060255,10371,8178,8185
4.071287,10369,8178,8185
4.077312,10377,8178,8182
4.091405,10380,8178,8182
4.097803,10382,8178,8182
4.108839,10385,8181,8185
4.117813,10388,8181,8185
4.131761,10388,8181,8185
4.140647,10388,8181,8185
4.149621,10388,8181,8185
4.158569,10390,8181,8185
4.169378,10401,8181,8182
4.178143,10408,8181,8185
4.189352,10416,8181,8185
4.198343,10422,8181,8182
4.209358,10430,8181,8185
4.218336,10438,8181,8185
4.229502,10447,8181,8182
4.238084,10457,8181,8185
4.248728,10466,8181,8185
4.257555,10474,8178,8185
4.2662,10476,8181,8185
4.278739,10490,8181,8185
4.286852,10503,8181,8185
4.300762,10516,8181,8182
4.311451,10524,8181,8182
4.317849,10541,8178,8180
4.328853,10550,8178,8182
4.340412,10558,8178,8182
4.351374,10569,8178,8182
4.359288,10580,8178,8185
4.368273,10588,8178,8182
4.378802,10603,8178,8182
4.38688,10614,8178,8180
4.398076,10622,8178,8187
4.409502,10628,8178,8185
4.418446,10641,8178,8185
4.430059,10644,8178,8185
4.440594,10652,8178,8185
4.4496,10657,8178,8185
4.460915,10660,8178,8187
4.469874,10663,8178,8182
4.480613,10672,8178,8185
4.486705,10675,8178,8185
4.500284,10684,8178,8185
4.509246,10689,8178,8185
4.520858,10695,8178,8187
4.527299,10703,8178,8185
4.538875,10703,8178,8185
4.550201,10708,8181,8185
4.558891,10714,8178,8185
4.567617,10719,8178,8185
4.578659,10722,8178,8185
4.589804,10725,8178,8185
4.600476,10733,8178,8187
4.606871,10736,8178,8185
4.620513,10744,8178,8185
4.629524,10744,8178,8185
4.638359,10744,8178,8187
4.649911,10744,8178,8185
4.658902,10750,8178,8185
4.667865,10750,8178,8182
4.679564,10755,8178,8185
4.68757,10758,8178,8185
4.698383,10761,8178,8182
4.709866,10766,8178,8185
4.71842,10776,8178,8185
4.729662,10781,8178,8185
4.738132,10790,8178,8185
4.747067,10792,8178,8182
4.757989,10800,8178,8185
4.769536,10806,8178,8185
4.781029,10811,8178,8185
4.787078,10811,8178,8185
4.79736,10822,8178,8185
4.808594,10825,8178,8185
4.817363,10833,8178,8185
4.827777,10836,8178,8185
4.839387,10847,8181,8185
4.850529,10858,8181,8187
4.859543,10861,8181,8185
4.868484,10866,8181,8185
4.877502,10873,8181,8182
4.888824,10884,8181,8185
4.897558,10896,8181,8182
4.908875,10904,8181,8185
4.916764,10912,8181,8185
4.92942,10923,8181,8185
4.939735,10928,8181,8182
4.950529,10933,8181,8182
4.956556,10939,8181,8185
4.966495,10947,8181,8185
4.978749,10944,8181,8187
4.988757,10947,8181,8185
4.998932,10950,8181,8185
5.009206,10962,8181,8185
5.019671,10968,8181,8187
5.027828,10976,8181,8185
5.039188,10987,8181,8185
5.048229,10998,8178,8185
5.057216,11006,8178,8185
5.068808,11011,8178,8187
5.077781,11023,8178,8185
5.086823,11034,8178,8185
5.098372,11047,8178,8182
5.109873,11057,8178,8185
5.118842,11068,8178,8185
5.127143,11079,8178,8185
5.13807,11090,8178,8185
5.148314,11098,8178,8185
5.159571,11112,8178,8187
5.165826,11128,8178,8185
5.179863,11140,8178,8182
5.188839,11149,8178,8185
5.200403,11160,8178,8185
5.206786,11171,8178,8185
5.218327,11180,8178,8185
5.226759,11191,8178,8185
5.23783,11196,8178,8185
5.249349,11201,8178,8185
5.258863,11204,8178,8187
5.267805,11204,8178,8187
5.279346,11204,8178,8185
5.287861,11201,8178,8185
5.297833,11201,8178,8185
5.306522,11201,8178,8185
5.317255,11196,8178,8185
5.326253,11199,8178,8185
5.337619,11196,8178,8185
5.346666,11193,8178,8185
5.357486,11193,8181,8185
5.366468,11196,8181,8185
5.377998,11193,8181,8185
5.386953,11193,8181,8185
5.39844,11204,8181,8185
5.407429,11207,8181,8185
5.418936,11215,8181,8187
5.4279,11223,8181,8185
5.439443,11226,8178,8185
5.448407,11231,8181,8185
5.459885,11228,8181,8185
5.466271,11231,8178,8182
5.47791,11234,8178,8182
5.486458,11231,8178,8185
5.497544,11239,8178,8185
5.506382,11239,8178,8185
5.517953,11244,8178,8185
5.529135,11249,8178,8182
5.538337,11249,8178,8187
5.547459,11255,8178,8182
5.55642,11268,8178,8185
5.567983,11274,8181,8185
5.579076,11291,8181,8185
5.588063,11313,8181,8185
5.596748,11334,8181,8185
5.605727,11350,8181,8185
5.616882,11366,8181,8185
5.627399,11377,8181,8185
5.636333,11377,8181,8185
5.647872,11382,8181,8185
5.656821,11385,8181,8182
5.668323,11385,8181,8185
5.676041,11382,8178,8185
5.6874,11385,8178,8185
5.698987,11385,8178,8185
5.707496,11390,8178,8185
5.716058,11390,8178,8185
5.727593,11390,8178,8187
5.736541,11390,8178,8185
5.74815,11390,8178,8185
5.757007,11388,8178,8185
5.76808,11388,8178,8185
5.776389,11390,8178,8185
5.787943,11385,8178,8187
5.799562,11382,8178,8187
5.80593,11382,8178,8185
5.813904,11385,8178,8185
5.827251,11385,8178,8187
5.838253,11390,8178,8185
5.8472,11396,8178,8187
5.856232,11405,8178,8185
5.867603,11413,8178,8185
5.87659,11416,8178,8182
5.887758,11425,8178,8187
5.895861,11436,8178,8185
5.908785,11436,8178,8182
5.917405,11445,8178,8185
5.928387,11448,8178,8185
5.937061,11461,8175,8187
5.94602,11475,8178,8185
5.957568,11494,8178,8185
5.966518,11507,8178,8187
5.978061,11525,8178,8185
5.987017,11539,8178,8185
5.998617,11547,8178,8185
6.007076,11550,8178,8185
6.015811,11554,8178,8185
6.027361,11562,8178,8185
6.036038,11570,8178,8185
6.047593,11578,8178,8185
6.05885,11583,8178,8187
6.065243,11589,8178,8185
6.075984,11594,8178,8185
6.087536,11594,8178,8185
6.099078,11591,8181,8185
6.104723,11586,8181,8185
6.115051,11586,8181,8185
6.126211,11589,8181,8187
6.13726,11589,8181,8187
6.145126,11589,8181,8185
6.157506,11586,8181,8185
6.165661,11583,8181,8185
6.178547,11581,8181,8185
6.184921,11581,8181,8185
6.195666,11583,8178,8187
6.207194,11586,8178,8185
6.21612,11594,8178,8185
6.226994,11602,8178,8187
6.23505,11612,8178,8185
6.246579,11618,8178,8185
6.257312,11621,8178,8185
6.266097,11623,8178,8185
6.277679,11623,8178,8185
6.286668,11626,8178,8185
6.298161,11629,8178,8187
6.308288,11634,8178,8185
6.314052,11642,8178,8187
6.328088,11645,8178,8187
6.337071,11645,8178,8187
6.348558,11645,8178,8187
6.354744,11642,8178,8182
6.366319,11637,8178,8185
6.375302,11631,8178,8185
6.386406,11623,8178,8185
6.394931,11618,8178,8185
6.406489,11618,8178,8185
6.414999,11615,8178,8185
6.425173,11612,8178,8182
6.435608,11610,8178,8185
6.444558,11605,8178,8182
6.455082,11597,8178,8185
6.468282,11597,8178,8187
6.477272,11589,8178,8187
6.486229,11586,8178,8185
6.494807,11591,8178,8185
6.506218,11597,8178,8185
6.515174,11605,8178,8187
6.526557,11615,8181,8185
6.535038,11612,8178,8187
6.546583,11615,8178,8182
6.557609,11600,8178,8182
6.566564,11591,8178,8182
6.575247,11586,8178,8182
6.584193,11583,8178,8182
6.598107,11578,8178,8182
6.607076,11575,8178,8185
6.616045,11575,8178,8182
6.624983,11572,8178,8185
6.636529,11572,8178,8182
6.645142,11570,8178,8185
6.656692,11570,8178,8185
6.665649,11564,8175,8185
6.676801,11554,8178,8185
6.685022,11556,8178,8185
6.695977,11544,8178,8182
6.707429,11547,8178,8182
6.71638,11539,8178,8187
6.727755,11539,8181,8185
6.736345,11536,8181,8185
6.747227,11542,8181,8185
6.755823,11542,8181,8182
6.766978,11544,8181,8185
6.777973,11547,8181,8185
6.784371,11556,8181,8187
6.795868,11556,8181,8185
6.804259,11556,8178,8185
6.814964,11562,8181,8185
6.826481,11559,8181,8185
6.83558,11550,8181,8185
6.846813,11539,8181,8185
6.855372,11531,8181,8185
6.866944,11525,8181,8185
6.875686,11523,8181,8187
6.884692,11520,8181,8185
6.895273,11520,8181,8185
6.904249,11511,8181,8187
6.915873,11507,8181,8185
6.924741,11502,8181,8185
6.936276,11499,8178,8185
6.947405,11494,8178,8185
6.953781,11488,8178,8187
6.964899,11488,8178,8187
6.97601,11483,8178,8185
6.984977,11486,8178,8185
6.996554,11488,8178,8185
7.00502,11491,8178,8185
7.016536,11496,8178,8187
7.027496,11496,8178,8185
7.036453,11494,8178,8185
7.045425,11488,8178,8187
7.054428,11486,8178,8187
7.06599,11486,8178,8185
7.074944,11480,8178,8185
7.086501,11472,8175,8185
7.095434,11469,8178,8185
7.106807,11461,8178,8185
7.11576,11456,8178,8185
7.124202,11450,8178,8187
7.134515,11448,8178,8185
7.145838,11448,8178,8185
7.154675,11445,8178,8185
7.163608,11445,8178,8185
7.175167,11441,8178,8185
7.185879,11436,8178,8185
7.194784,11430,8178,8187
7.206284,11428,8178,8185
7.215246,11428,8178,8187
7.226549,11430,8178,8187
7.232957,11430,8178,8185
7.244554,11428,8178,8185
7.253509,11419,8178,8185
7.265062,11410,8178,8185
7.273988,11405,8178,8185
7.284873,11399,8178,8187
7.293452,11396,8178,8185
7.305558,11390,8178,8185
7.313808,11385,8178,8185
7.326108,11390,8178,8187
7.333154,11390,8178,8185
7.34336,11390,8178,8185
7.354725,11393,8178,8185
7.366283,11390,8178,8185
7.375259,11385,8178,8185
7.383821,11382,8178,8185
7.394793,11385,8178,8185
7.406357,11380,8178,8187
7.415323,11382,8178,8185
7.423955,11382,8178,8185
7.432923,11385,8178,8187
7.44678,11393,8178,8187
7.455734,11396,8181,8185
7.464685,11396,8181,8182
7.473617,11402,8181,8185
7.485176,11402,8181,8185
7.494127,11402,8181,8180
7.505671,11396,8181,8180
7.514625,11396,8181,8180
7.526168,11396,8181,8185
7.535132,11405,8181,8182
7.546702,11410,8183,8182
7.55308,11413,8181,8182
7.564619,11410,8178,8182
7.575562,11413,8178,8187
7.583755,11408,8175,8185
7.595278,11405,8178,8182
7.606026,11408,8178,8185
7.614968,11399,8178,8185
7.626516,11402,8178,8185
7.632889,11399,8178,8187
7.643994,11396,8178,8185
7.652937,11393,8178,8185
7.664044,11390,8178,8185
7.675335,11382,8178,8185
