Time [s],Pressure [cmH2O],Flow [L/s],V_tidal [L],Inspiratory Indicies,Weight [kg]
0,8.89350403454105,-0.242849512660806,0,1161,70
0.01,9.22607173667709,-0.242849512660806,-0.00242849512660806,2653,0
0.02,9.49427149646421,-0.307772604848743,-0.0051816057141558,0,0
0.03,9.78392723703431,-0.287763698423059,-0.00815928723051481,0,0
0.04,10.2345028334767,-0.287763698423059,-0.0110369242147454,0,0
0.05,10.6207104875701,-0.152406677359627,-0.0132377760936588,0,0
0.06,10.9318222089232,-0.392815640118486,-0.0159638876810494,0,0
0.07,11.2429339302763,-0.152406677359627,-0.01868999926844,0,0
0.08,11.4789497188889,-0.152406677359627,-0.0202140660420362,0,0
0.09,11.6613255555442,-0.242849512660806,-0.0221903469921384,0,0
0.1,11.8758853633739,-0.152406677359627,-0.0241666279422406,0,0
0.11,11.9938932576802,-0.152406677359627,-0.0256906947158368,0,0
0.12,12.1119011519865,-0.216932836689902,-0.0275373922860845,0,0
0.13,12.2835489982503,-0.242849512660806,-0.029836304032838,0,0
0.14,12.4659248349056,-0.152406677359627,-0.0318125849829402,0,0
0.15,12.5839327292119,-0.152406677359627,-0.0333366517565365,0,0
0.16,12.6483006715608,0.111894124921677,-0.0335392145187262,0,0
0.17,12.7341245946927,0.111894124921677,-0.0324202732695095,0,0
0.18,12.8843164601735,-0.152406677359627,-0.0326228360316992,0,0
0.19,13.0023243544798,-0.242849512660806,-0.0345991169818014,0,0
0.2,13.2168841623095,-0.242849512660806,-0.0370276121084094,0,0
0.21,13.3348920566158,-0.242849512660806,-0.0394561072350175,0,0
0.22,13.5709078452285,-0.307772604848743,-0.0422092178225652,0,0
0.23,13.7747396626667,-0.307772604848743,-0.0452869438710527,0,0
0.24,14.0000274608879,-0.242849512660806,-0.0480400544586004,0,0
0.25,14.1716753071517,-0.307772604848743,-0.0507931650461482,0,0
0.26,14.3433231534154,-0.307772604848743,-0.0538708910946356,0,0
0.27,14.5471549708536,-0.344319672144806,-0.0571313524796033,0,0
0.28,14.6866188459429,-0.242849512660806,-0.0600671984036314,0,0
0.29,14.9440906153386,-0.152406677359627,-0.0620434793537335,0,0
0.3,15.1801064039513,-0.287763698423059,-0.064244331232647,0,0
0.31,15.4053942021724,-0.287763698423059,-0.0671219682168776,0,0
0.32,15.6199540100021,-0.287763698423059,-0.0699996052011082,0,0
0.33,15.8130578370489,-0.287763698423059,-0.0728772421853387,0,0
0.34,15.9525217121382,-0.216932836689902,-0.0754007248609035,0,0
0.35,16.102713577619,-0.242849512660806,-0.0776996366076571,0,0
0.36,16.2207214719253,-0.287763698423059,-0.0803527026630764,0,0
0.37,16.4030973085805,-0.242849512660806,-0.0830057687184957,0,0
0.38,16.4889212317124,-0.287763698423059,-0.085658834773915,0,0
0.39,16.6283851068017,-0.287763698423059,-0.0885364717581456,0,0
0.4,16.7249370203251,-0.287763698423059,-0.0914141087423762,0,0
0.41,16.8429449146314,-0.287763698423059,-0.0942917457266068,0,0
0.42,16.9394968281548,-0.344319672144806,-0.0974521625794461,0,0
0.43,17.0360487416782,-0.242849512660806,-0.100388008503474,0,0
0.44,17.12187266481,-0.344319672144806,-0.103323854427502,0,0
0.45,17.2076965879419,-0.242849512660806,-0.10625970035153,0,0
0.46,17.2613365398993,-0.307772604848743,-0.109012810939078,0,0
0.47,17.3257044822483,-0.307772604848743,-0.112090536987565,0,0
0.48,17.3257044822483,-0.307772604848743,-0.115168263036053,0,0
0.49,17.4115284053801,-0.152406677359627,-0.117469159447095,0,0
0.5,17.4437123765546,-0.152406677359627,-0.118993226220691,0,0
0.51,17.4437123765546,-0.152406677359627,-0.120517292994287,0,0
0.52,17.4651683573376,-0.152406677359627,-0.122041359767884,0,0
0.53,17.5295362996865,0.111894124921677,-0.122243922530073,0,0
0.54,17.5295362996865,-0.152406677359627,-0.122446485292263,0,0
0.55,17.5831762516439,-0.152406677359627,-0.123970552065859,0,0
0.56,17.6475441939928,-0.242849512660806,-0.125946833015962,0,0
0.57,17.6690001747758,-0.152406677359627,-0.127923113966064,0,0
0.58,17.6475441939928,-0.152406677359627,-0.12944718073966,0,0
0.59,17.7011841459502,-0.242849512660806,-0.131423461689762,0,0
0.6,17.7011841459502,-0.152406677359627,-0.133399742639864,0,0
0.61,17.7011841459502,-0.242849512660806,-0.135376023589966,0,0
0.62,17.7011841459502,-0.242849512660806,-0.137804518716574,0,0
0.63,17.7333681171247,-0.152406677359627,-0.139780799666677,0,0
0.64,17.7011841459502,-0.242849512660806,-0.141757080616779,0,0
0.65,17.7548240979077,-0.242849512660806,-0.144185575743387,0,0
0.66,17.8084640498651,-0.242849512660806,-0.146614070869995,0,0
0.67,17.8084640498651,-0.307772604848743,-0.149367181457543,0,0
0.68,17.872831992214,-0.242849512660806,-0.15212029204509,0,0
0.69,17.894287972997,-0.307772604848743,-0.154873402632638,0,0
0.7,17.9801118961288,-0.152406677359627,-0.15717429904368,0,0
0.71,18.0122958673033,-0.152406677359627,-0.158698365817276,0,0
0.72,18.0981197904352,-0.242849512660806,-0.160674646767378,0,0
0.73,18.1303037616096,-0.242849512660806,-0.163103141893986,0,0
0.74,18.1624877327841,-0.152406677359627,-0.165079422844089,0,0
0.75,18.1624877327841,-0.242849512660806,-0.167055703794191,0,0
0.76,18.1839437135671,0.111894124921677,-0.167710480732886,0,0
0.77,18.2161276847415,-0.152406677359627,-0.167913043495076,0,0
0.78,18.248311655916,-0.152406677359627,-0.169437110268672,0,0
0.79,18.248311655916,-0.152406677359627,-0.170961177042269,0,0
0.8,18.248311655916,-0.152406677359627,-0.172485243815865,0,0
0.81,18.2697676366989,-0.152406677359627,-0.174009310589461,0,0
0.82,18.3019516078734,0.111894124921677,-0.174211873351651,0,0
0.83,18.3341355790478,-0.152406677359627,-0.174414436113841,0,0
0.84,18.3663195502223,-0.152406677359627,-0.175938502887437,0,0
0.85,18.3877755310053,-0.242849512660806,-0.177914783837539,0,0
0.86,18.4199595021797,-0.152406677359627,-0.179891064787641,0,0
0.87,18.4521434733542,-0.242849512660806,-0.181867345737743,0,0
0.88,18.4843274445286,-0.152406677359627,-0.183843626687846,0,0
0.89,18.5486953868775,-0.242849512660806,-0.185819907637948,0,0
0.9,18.5701513676605,-0.242849512660806,-0.188248402764556,0,0
0.91,18.5701513676605,-0.242849512660806,-0.190676897891164,0,0
0.92,18.6667032811839,-0.307772604848743,-0.193430008478712,0,0
0.93,18.6881592619668,-0.307772604848743,-0.196507734527199,0,0
0.94,18.7203432331413,-0.307772604848743,-0.199585460575687,0,0
0.95,18.7525272043158,-0.307772604848743,-0.202663186624174,0,0
0.96,18.7525272043158,-0.344319672144806,-0.205923648009142,0,0
0.97,18.7847111754902,-0.307772604848743,-0.209184109394109,0,0
0.98,18.7847111754902,-0.307772604848743,-0.212261835442597,0,0
0.99,18.7525272043158,-0.242849512660806,-0.215014946030145,0,0
1,18.7847111754902,-0.307772604848743,-0.217768056617692,0,0
1.01,18.7847111754902,-0.152406677359627,-0.220068953028734,0,0
1.02,18.7847111754902,0.024581802755792,-0.220708077401753,0,0
1.03,18.7847111754902,-0.152406677359627,-0.221347201774773,0,0
1.04,18.7525272043158,-0.152406677359627,-0.222871268548369,0,0
1.05,18.7525272043158,0.024581802755792,-0.223510392921388,0,0
1.06,18.7203432331413,-0.152406677359627,-0.224149517294407,0,0
1.07,18.7525272043158,0.111894124921677,-0.224352080056597,0,0
1.08,18.7525272043158,-0.152406677359627,-0.224554642818787,0,0
1.09,18.7525272043158,0.024581802755792,-0.225193767191806,0,0
1.1,18.7847111754902,-0.152406677359627,-0.225832891564825,0,0
1.11,18.8168951466647,-0.152406677359627,-0.227356958338421,0,0
1.12,18.8812630890136,-0.152406677359627,-0.228881025112018,0,0
1.13,18.9027190697965,-0.152406677359627,-0.230405091885614,0,0
1.14,18.9027190697965,-0.152406677359627,-0.23192915865921,0,0
1.15,18.8812630890136,-0.242849512660806,-0.233905439609312,0,0
1.16,18.9027190697965,0.111894124921677,-0.234560216548008,0,0
1.17,18.8812630890136,-0.242849512660806,-0.235214993486704,0,0
1.18,18.8812630890136,-0.242849512660806,-0.237643488613312,0,0
1.19,18.8812630890136,-0.242849512660806,-0.24007198373992,0,0
1.2,18.8812630890136,-0.242849512660806,-0.242500478866528,0,0
1.21,18.8812630890136,-0.152406677359627,-0.24447675981663,0,0
1.22,18.8812630890136,-0.242849512660806,-0.246453040766732,0,0
1.23,18.8812630890136,-0.242849512660806,-0.24888153589334,0,0
1.24,18.9027190697965,-0.242849512660806,-0.251310031019948,0,0
1.25,18.934903040971,-0.152406677359627,-0.25328631197005,0,0
1.26,18.9670870121455,-0.242849512660806,-0.255262592920153,0,0
1.27,18.9885429929284,-0.242849512660806,-0.257691088046761,0,0
1.28,19.0207269641029,-0.242849512660806,-0.260119583173369,0,0
1.29,19.0850949064518,-0.242849512660806,-0.262548078299977,0,0
1.3,19.0850949064518,-0.287763698423059,-0.265201144355396,0,0
1.31,19.1494628488007,-0.152406677359627,-0.267401996234309,0,0
1.32,19.1816468199752,-0.216932836689902,-0.269248693804557,0,0
1.33,19.267470743107,-0.242849512660806,-0.271547605551311,0,0
1.34,19.28892672389,-0.242849512660806,-0.273976100677919,0,0
1.35,19.3532946662389,-0.344319672144806,-0.276911946601947,0,0
1.36,19.3854786374134,-0.242849512660806,-0.279847792525975,0,0
1.37,19.4391185893708,-0.344319672144806,-0.282783638450003,0,0
1.38,19.4713025605453,-0.242849512660806,-0.285719484374031,0,0
1.39,19.5571264836771,-0.242849512660806,-0.288147979500639,0,0
1.4,19.6107664356346,-0.307772604848743,-0.290901090088187,0,0
1.41,19.6751343779835,-0.152406677359627,-0.293201986499229,0,0
1.42,19.6965903587664,-0.242849512660806,-0.295178267449331,0,0
1.43,19.7287743299409,-0.242849512660806,-0.297606762575939,0,0
1.44,19.7716862915068,-0.152406677359627,-0.299583043526041,0,0
1.45,19.8145982530728,-0.242849512660806,-0.301559324476143,0,0
1.46,19.8360542338557,-0.242849512660806,-0.303987819602751,0,0
1.47,19.8682382050302,-0.152406677359627,-0.305964100552853,0,0
1.48,19.9004221762046,-0.242849512660806,-0.307940381502955,0,0
1.49,19.9540621281621,-0.152406677359627,-0.309916662453058,0,0
1.5,19.9540621281621,-0.152406677359627,-0.311440729226654,0,0
1.51,19.9862460993365,-0.242849512660806,-0.313417010176756,0,0
1.52,20.0077020801195,-0.152406677359627,-0.315393291126858,0,0
1.53,20.039886051294,-0.242849512660806,-0.31736957207696,0,0
1.54,20.0720700224684,-0.242849512660806,-0.319798067203568,0,0
1.55,20.1042539936429,-0.307772604848743,-0.322551177791116,0,0
1.56,20.1042539936429,-0.242849512660806,-0.325304288378664,0,0
1.57,20.1257099744258,-0.242849512660806,-0.327732783505272,0,0
1.58,20.1257099744258,-0.307772604848743,-0.33048589409282,0,0
1.59,20.1578939456003,-0.307772604848743,-0.333563620141307,0,0
1.6,20.1578939456003,-0.152406677359627,-0.335864516552349,0,0
1.61,20.1900779167747,-0.242849512660806,-0.337840797502451,0,0
1.62,20.1900779167747,-0.152406677359627,-0.339817078452553,0,0
1.63,20.1578939456003,-0.242849512660806,-0.341793359402655,0,0
1.64,20.1257099744258,-0.152406677359627,-0.343769640352758,0,0
1.65,20.1042539936429,-0.152406677359627,-0.345293707126354,0,0
1.66,20.1042539936429,-0.242849512660806,-0.347269988076456,0,0
1.67,20.0720700224684,-0.242849512660806,-0.349698483203064,0,0
1.68,20.0720700224684,0.0245818027557917,-0.350789821752589,0,0
1.69,20.039886051294,-0.242849512660806,-0.351881160302114,0,0
1.7,20.039886051294,0.111894124921677,-0.35253593724081,0,0
1.71,20.0077020801195,-0.152406677359627,-0.352738500003,0,0
1.72,19.9540621281621,-0.152406677359627,-0.354262566776596,0,0
1.73,19.9218781569876,-0.152406677359627,-0.355786633550192,0,0
1.74,19.9004221762046,-0.152406677359627,-0.357310700323788,0,0
1.75,19.8360542338557,0.111894124921677,-0.357513263085978,0,0
1.76,19.8360542338557,-0.152406677359627,-0.357715825848168,0,0
1.77,19.8360542338557,-0.152406677359627,-0.359239892621764,0,0
1.78,19.7716862915068,-0.152406677359627,-0.360763959395361,0,0
1.79,19.7287743299409,0.111894124921677,-0.36096652215755,0,0
1.8,19.7716862915068,-0.152406677359627,-0.36116908491974,0,0
1.81,19.7287743299409,-0.152406677359627,-0.362693151693336,0,0
1.82,19.7287743299409,-0.242849512660806,-0.364669432643439,0,0
1.83,19.7287743299409,0.111894124921677,-0.365324209582134,0,0
1.84,19.7716862915068,0.0245818027557917,-0.364641829943747,0,0
1.85,19.7716862915068,-0.242849512660806,-0.365733168493272,0,0
1.86,19.7716862915068,-0.242849512660806,-0.36816166361988,0,0
1.87,19.8145982530728,-0.242849512660806,-0.370590158746488,0,0
1.88,19.8145982530728,-0.242849512660806,-0.373018653873096,0,0
1.89,19.8682382050302,-0.242849512660806,-0.375447148999704,0,0
1.9,19.8682382050302,-0.307772604848743,-0.378200259587252,0,0
1.91,19.8682382050302,-0.242849512660806,-0.3809533701748,0,0
1.92,19.8682382050302,-0.242849512660806,-0.383381865301408,0,0
1.93,19.8682382050302,-0.242849512660806,-0.385810360428016,0,0
1.94,19.8360542338557,-0.242849512660806,-0.388238855554624,0,0
1.95,19.7716862915068,-0.242849512660806,-0.390667350681232,0,0
1.96,19.6965903587664,-0.307772604848743,-0.393420461268779,0,0
1.97,19.6107664356346,-0.152406677359627,-0.395721357679821,0,0
1.98,19.6107664356346,-0.152406677359627,-0.397245424453418,0,0
1.99,19.5893104548516,-0.152406677359627,-0.398769491227014,0,0
2,19.5893104548516,0.0245818027557917,-0.399408615600033,0,0
2.01,19.5249425125027,-0.152406677359627,-0.400047739973052,0,0
2.02,19.4927585413282,-0.152406677359627,-0.401571806746648,0,0
2.03,19.3532946662389,-0.242849512660806,-0.403548087696751,0,0
2.04,19.267470743107,-0.307772604848743,-0.406301198284298,0,0
2.05,19.1494628488007,-0.242849512660806,-0.409054308871846,0,0
2.06,18.9670870121455,0.19066293693981,-0.409315241750451,0,0
2.07,18.8168951466647,0.0245818027557917,-0.408239018051973,0,0
2.08,18.6881592619668,0.19066293693981,-0.407162794353495,0,0
2.09,18.5165114157031,0.0245818027557917,-0.406086570655017,0,0
2.1,18.3877755310053,0.19066293693981,-0.405010346956539,0,0
2.11,18.3019516078734,0.0245818027557917,-0.403934123258061,0,0
2.12,18.3663195502223,0.19066293693981,-0.402857899559583,0,0
2.13,18.3341355790478,0.19066293693981,-0.400951270190185,0,0
2.14,18.2697676366989,0.0245818027557917,-0.399875046491707,0,0
2.15,18.2697676366989,-0.152406677359627,-0.400514170864726,0,0
2.16,18.2161276847415,0.0245818027557917,-0.401153295237745,0,0
2.17,18.2161276847415,0.0245818027557917,-0.400907477210187,0,0
2.18,18.1839437135671,0.19066293693981,-0.39983125351171,0,0
2.19,18.1839437135671,-0.152406677359627,-0.399639972213809,0,0
2.2,18.1624877327841,0.0245818027557917,-0.400279096586828,0,0
2.21,18.1839437135671,0.111894124921677,-0.39959671694844,0,0
2.22,18.2161276847415,0.111894124921677,-0.398477775699224,0,0
2.23,18.1839437135671,0.111894124921677,-0.397358834450007,0,0
2.24,18.1624877327841,-0.152406677359627,-0.397561397212197,0,0
2.25,18.1303037616096,0.111894124921677,-0.397763959974386,0,0
2.26,18.0981197904352,0.111894124921677,-0.39664501872517,0,0
2.27,18.1303037616096,0.0245818027557917,-0.395962639086782,0,0
2.28,18.0659358192607,-0.152406677359627,-0.396601763459802,0,0
2.29,18.0444798384777,0.19066293693981,-0.396410482161901,0,0
2.3,17.9801118961288,0.111894124921677,-0.394897696852593,0,0
2.31,17.9586559153459,-0.152406677359627,-0.395100259614783,0,0
2.32,17.9264719441714,-0.152406677359627,-0.396624326388379,0,0
2.33,17.872831992214,-0.152406677359627,-0.398148393161976,0,0
2.34,17.8406480210395,-0.152406677359627,-0.399672459935572,0,0
2.35,17.7548240979077,0.0245818027557917,-0.400311584308591,0,0
2.36,17.7333681171247,0.0245818027557917,-0.400065766281033,0,0
2.37,17.7011841459502,0.111894124921677,-0.399383386642646,0,0
2.38,17.6690001747758,0.0245818027557917,-0.398701007004258,0,0
2.39,17.6153602228183,0.0245818027557917,-0.3984551889767,0,0
2.4,17.5509922804694,-0.152406677359627,-0.39909431334972,0,0
2.41,17.4651683573376,-0.152406677359627,-0.400618380123316,0,0
2.42,17.4115284053801,0.19066293693981,-0.400427098825415,0,0
2.43,17.3257044822483,-0.152406677359627,-0.400235817527514,0,0
2.44,17.2935205110738,0.19066293693981,-0.400044536229613,0,0
2.45,17.1755126167675,0.19066293693981,-0.398137906860215,0,0
2.46,17.0896886936356,0.0245818027557917,-0.397061683161737,0,0
2.47,17.0360487416782,0.111894124921677,-0.39637930352335,0,0
2.48,16.9716807993292,-0.187466864989695,-0.39675716722369,0,0
2.49,16.8751288858059,-0.242849512660806,-0.398908749111942,0,0
2.5,16.8429449146314,-0.242849512660806,-0.40133724423855,0,0
2.51,16.7785769722825,-0.242849512660806,-0.403765739365158,0,0
2.52,16.7249370203251,-0.307772604848743,-0.406518849952706,0,0
2.53,16.6605690779762,0.0245818027557917,-0.407934803963171,0,0
2.54,16.5747451548443,-0.152406677359627,-0.40857392833619,0,0
2.55,16.5425611836699,-0.187466864989695,-0.410273296047937,0,0
2.56,16.456737260538,-0.152406677359627,-0.411972663759683,0,0
2.57,16.435281279755,-0.242849512660806,-0.413948944709785,0,0
2.58,16.3709133374061,-0.242849512660806,-0.416377439836393,0,0
2.59,16.3172733854487,-0.152406677359627,-0.418353720786496,0,0
2.6,16.2850894142742,-0.152406677359627,-0.419877787560092,0,0
2.61,16.2421774527083,-0.152406677359627,-0.421401854333688,0,0
2.62,16.1885375007508,0.111894124921677,-0.421604417095878,0,0
2.63,16.102713577619,0.111894124921677,-0.420485475846661,0,0
2.64,16.0705296064445,0.111894124921677,-0.419366534597444,0,0
2.65,16.0383456352701,0.111894124921677,-0.418247593348228,0,0
2.66,15.9847056833126,-0.152406677359627,-0.418450156110417,0,0
2.67,15.9310657313552,-0.152406677359627,-0.419974222884014,0,0
2.68,15.8988817601807,0.111894124921677,-0.420176785646204,0,0
2.69,15.8666977890063,-0.242849512660806,-0.420831562584899,0,0
2.7,15.8345138178318,-0.152406677359627,-0.422807843535001,0,0
2.71,15.7701458754829,-0.242849512660806,-0.424784124485103,0,0
2.72,15.7701458754829,-0.242849512660806,-0.427212619611712,0,0
2.73,15.7165059235255,-0.242849512660806,-0.42964111473832,0,0
2.74,15.7165059235255,-0.187466864989695,-0.431792696626572,0,0
2.75,15.6521379811766,0.0245818027557917,-0.432607121937742,0,0
2.76,15.5984980292192,0.0245818027557917,-0.432361303910184,0,0
2.77,15.5663140580447,-0.187466864989695,-0.433175729221353,0,0
2.78,15.5663140580447,-0.242849512660806,-0.435327311109606,0,0
2.79,15.5663140580447,-0.242849512660806,-0.437755806236214,0,0
2.8,15.4697621445214,-0.152406677359627,-0.439732087186316,0,0
2.81,15.5234020964788,0.111894124921677,-0.439934649948506,0,0
2.82,15.5663140580447,-0.152406677359627,-0.440137212710695,0,0
2.83,15.5984980292192,0.111894124921677,-0.440339775472885,0,0
2.84,15.6199540100021,0.111894124921677,-0.439220834223668,0,0
2.85,15.6199540100021,-0.152406677359627,-0.439423396985858,0,0
2.86,15.6521379811766,-0.242849512660806,-0.44139967793596,0,0
2.87,15.6521379811766,0.111894124921677,-0.442054454874656,0,0
2.88,15.6199540100021,-0.242849512660806,-0.442709231813352,0,0
2.89,15.6199540100021,0.111894124921677,-0.443364008752047,0,0
2.9,15.6843219523511,-0.242849512660806,-0.444018785690743,0,0
2.91,15.6843219523511,-0.187466864989695,-0.446170367578995,0,0
2.92,15.7165059235255,-0.152406677359627,-0.447869735290742,0,0
2.93,15.6843219523511,-0.242849512660806,-0.449846016240844,0,0
2.94,15.7165059235255,-0.242849512660806,-0.452274511367452,0,0
2.95,15.7379619043085,-0.242849512660806,-0.45470300649406,0,0
2.96,15.7701458754829,-0.307772604848743,-0.457456117081608,0,0
2.97,15.8130578370489,-0.307772604848743,-0.460533843130095,0,0
2.98,15.8345138178318,-0.307772604848743,-0.463611569178583,0,0
2.99,15.8666977890063,-0.242849512660806,-0.466364679766131,0,0
3,15.8988817601807,0.111894124921677,-0.467019456704826,0,0
3.01,15.8988817601807,-0.152406677359627,-0.467222019467016,0,0
3.02,15.9525217121382,-0.152406677359627,-0.468746086240612,0,0
3.03,15.9847056833126,-0.242849512660806,-0.470722367190715,0,0
3.04,16.0168896544871,-0.152406677359627,-0.472698648140817,0,0
3.05,16.0168896544871,-0.242849512660806,-0.474674929090919,0,0
3.06,16.0383456352701,0.111894124921677,-0.475329706029614,0,0
3.07,16.0168896544871,-0.242849512660806,-0.47598448296831,0,0
3.08,16.0168896544871,-0.152406677359627,-0.477960763918412,0,0
3.09,16.0383456352701,-0.152406677359627,-0.479484830692009,0,0
3.1,15.9847056833126,-0.242849512660806,-0.481461111642111,0,0
3.11,15.9847056833126,-0.152406677359627,-0.483437392592213,0,0
3.12,15.9847056833126,-0.242849512660806,-0.485413673542315,0,0
