Time [s],Pressure [cmH2O],Flow [L/s],V_tidal [L],Inspiratory Indicies,Weight [kg]
0,6.27587437901872,0.362878212138203,0,540,80
0.01,6.0720425615805,0.362878212138203,0.00362878212138203,1300,0
0.02,5.9325786864912,0.394350931500288,0.00741492783957449,2175,0
0.03,5.73947485944447,0.362878212138203,0.011201073557767,2852,0
0.04,5.55709902278922,0.394350931500288,0.0149872192759594,3612,0
0.05,5.41763514769992,0.362878212138203,0.0187733649941519,0,0
0.06,5.26744328221913,0.362878212138203,0.0224021471155339,0,0
0.07,5.06361146478091,0.362878212138203,0.0260309292369159,0,0
0.08,4.84905165695121,0.362878212138203,0.029659711358298,0,0
0.09,4.63449184912151,0.30972973113479,0.0330227510746629,0,0
0.1,4.46284400285775,0.362878212138203,0.0363857907910279,0,0
0.11,4.34483610855142,0.409180507038652,0.0402460843869122,0,0
0.12,4.22682821424508,0.30972973113479,0.0438406355777794,0,0
0.13,4.02299639680687,0.30972973113479,0.0469379328891273,0,0
0.14,3.82989256976014,0.30972973113479,0.0500352302004752,0,0
0.15,3.65824472349638,0.30972973113479,0.0531325275118231,0,0
0.16,3.50805285801559,0.30972973113479,0.056229824823171,0,0
0.17,3.40077295410074,0.30972973113479,0.0593271221345189,0,0
0.18,3.30422104057738,0.268515262170148,0.0622183471010436,0,0
0.19,3.19694113666253,0.268515262170148,0.0649034997227451,0,0
0.2,3.13257319431362,0.362878212138203,0.0680604670942868,0,0
0.21,3.07893324235619,0.362878212138203,0.0716892492156689,0,0
0.22,2.96092534804986,0.362878212138203,0.0753180313370509,0,0
0.23,2.88582941530946,0.328403009295123,0.0787744374442176,0,0
0.24,2.82146147296055,0.394350931500288,0.0823882071481946,0,0
0.25,2.73563754982867,0.362878212138203,0.0861743528663871,0,0
0.26,2.68199759787125,0.394350931500288,0.0899604985845795,0,0
0.27,2.58544568434788,0.409180507038652,0.0939781557772742,0,0
0.28,2.499621761216,0.409180507038652,0.0980699608476607,0,0
0.29,2.47816578043303,0.409180507038652,0.102161765918047,0,0
0.3,2.41379783808412,0.437333680009823,0.10639433685329,0,0
0.31,2.3601578861267,0.437333680009823,0.110767673653388,0,0
0.32,2.29578994377779,0.476454445006785,0.115336614278471,0,0
0.33,2.24214999182036,0.437333680009823,0.119905554903554,0,0
0.34,2.15632606868848,0.476454445006785,0.124474495528637,0,0
0.35,2.12414209751403,0.476454445006785,0.129239039978705,0,0
0.36,2.0705021455566,0.476454445006785,0.134003584428773,0,0
0.37,1.98467822242472,0.476454445006785,0.138768128878841,0,0
0.38,1.98467822242472,0.500840192573689,0.143654602066743,0,0
0.39,1.9310382704673,0.500840192573689,0.14866300399248,0,0
0.4,1.9310382704673,0.500840192573689,0.153671405918217,0,0
0.41,1.9310382704673,0.500840192573689,0.158679807843954,0,0
0.42,1.89885429929284,0.500840192573689,0.163688209769691,0,0
0.43,1.89885429929284,0.567747372947536,0.169031147597297,0,0
0.44,1.84521434733542,0.535340068548058,0.174546584804775,0,0
0.45,1.81303037616096,0.567747372947536,0.180062022012253,0,0
0.46,1.89885429929284,0.588361402387474,0.185842565888928,0,0
0.47,1.86667032811839,0.588361402387474,0.191726179912802,0,0
0.48,1.78084640498651,0.588361402387474,0.197609793936677,0,0
0.49,1.84521434733542,0.535340068548058,0.203228301291355,0,0
0.5,1.75939042420354,0.588361402387474,0.208846808646032,0,0
0.51,1.72720645302908,0.588361402387474,0.214730422669907,0,0
0.52,1.69502248185463,0.617994522884422,0.220762202296267,0,0
0.53,1.75939042420354,0.617994522884422,0.226942147525111,0,0
0.54,1.72720645302908,0.608277239546148,0.233073506337264,0,0
0.55,1.52337463559087,0.588361402387474,0.239056699546932,0,0
0.56,1.49119066441641,0.617994522884422,0.245088479173291,0,0
0.57,1.52337463559087,0.617994522884422,0.251268424402136,0,0
0.58,1.31954281815265,0.617994522884422,0.25744836963098,0,0
0.59,1.2873588469782,0.636984529361327,0.263723264892209,0,0
0.6,1.06207104875701,0.636984529361327,0.270093110185822,0,0
0.61,1.02988707758256,0.664452692929647,0.276600296297277,0,0
0.62,1.14789497188889,0.690829553245408,0.283376707528152,0,0
0.63,0.976247125625134,0.690829553245408,0.290285003060606,0,0
0.64,0.976247125625134,0.682150600287053,0.297149903828268,0,0
0.65,0.783143298578404,0.707868301287588,0.304099998336141,0,0
0.66,0.729503346620979,0.724506447382148,0.31126187207949,0,0
0.67,0.579311481140189,0.724506447382148,0.318506936553312,0,0
0.68,0.525671529182764,0.724506447382148,0.325752001027133,0,0
0.69,0.354023682919005,0.748770781210172,0.333118387170095,0,0
0.7,0.354023682919005,0.748770781210172,0.340606094982197,0,0
0.71,0.32183971174455,0.764519288915994,0.348172545332827,0,0
0.72,0.354023682919005,0.787551797420593,0.35593290076451,0,0
0.73,0.118007894306335,0.809929579726655,0.363920307650246,0,0
0.74,-0.0750959327403949,0.809929579726655,0.372019603447513,0,0
0.75,-0.160919855872275,0.787551797420593,0.380007010333249,0,0
0.76,-0.225287798221185,0.824510754597369,0.388067323093339,0,0
0.77,-0.27892775017861,0.838838509355197,0.396384069413102,0,0
0.78,-0.600767461923159,0.838838509355197,0.404772454506654,0,0
0.79,-0.772415308186919,0.89385585308782,0.413435926318869,0,0
0.8,-0.514943538791279,0.859882628777345,0.422204618728195,0,0
0.81,-0.858239231318799,0.907088940749406,0.431039476575828,0,0
0.82,-0.890423202493254,0.89385585308782,0.440044200545015,0,0
0.83,-0.954791144842164,0.939356427165001,0.449210261946279,0,0
0.84,-0.836783250535829,0.976671223210643,0.458790400198157,0,0
0.85,-0.954791144842164,0.939356427165001,0.468370538450035,0,0
0.86,-1.0727990391485,0.958195485144855,0.477858298011584,0,0
0.87,-1.14789497188889,0.958195485144855,0.487440252863033,0,0
0.88,-0.954791144842164,0.958195485144855,0.497022207714481,0,0
0.89,-0.976247125625134,0.926584284847131,0.506446106564441,0,0
0.9,-0.890423202493254,0.939356427165001,0.515775810124502,0,0
0.91,-1.20153492384632,0.939356427165001,0.525169374396152,0,0
0.92,-0.922607173667709,0.976671223210643,0.53474951264803,0,0
0.93,-1.0727990391485,0.958195485144855,0.544423846189808,0,0
0.94,-0.922607173667709,0.976671223210643,0.554098179731585,0,0
0.95,-1.16935095267186,0.988796611330308,0.56392551890429,0,0
0.96,-0.976247125625134,1.01847871328006,0.573961895527342,0,0
0.97,-1.0727990391485,0.988796611330308,0.583998272150394,0,0
0.98,-1.0727990391485,0.945677813751311,0.593670644275802,0,0
0.99,-1.14789497188889,1.00671089647132,0.603432587826915,0,0
1,-1.40536674128453,1.03587980958237,0.613645541357184,0,0
1.01,-1.0727990391485,1.0473199321272,0.624061540065731,0,0
1.02,-1.43755071245899,1.00671089647132,0.634331694208724,0,0
1.03,-1.46973468363344,1.01847871328006,0.644457642257481,0,0
1.04,-1.2873588469782,1.00671089647132,0.654583590306238,0,0
1.05,-1.40536674128453,1.03587980958237,0.664796543836506,0,0
1.06,-1.35172678932711,1.03587980958237,0.67515534193233,0,0
1.07,-1.2873588469782,1.05299338573241,0.685599707908904,0,0
1.08,-1.37318277011008,1.06424956223938,0.696185922648763,0,0
1.09,-0.954791144842164,1.01847871328006,0.70659956402636,0,0
1.1,-1.43755071245899,1.01847871328006,0.716784351159161,0,0
1.11,-1.37318277011008,1.00671089647132,0.726910299207917,0,0
1.12,-1.23371889502077,1.00671089647132,0.736977408172631,0,0
1.13,-1.43755071245899,1.08091406745518,0.747415532992263,0,0
1.14,-1.37318277011008,1.08091406745518,0.758224673666815,0,0
1.15,-1.46973468363344,1.02431192493785,0.76875080362878,0,0
1.16,-1.6413825298972,1.09188244859648,0.779331775496452,0,0
1.17,-1.57701458754829,1.03587980958237,0.789970586787346,0,0
1.18,-1.46973468363344,1.00671089647132,0.800183540317614,0,0
1.19,-1.66283851068017,1.06424956223938,0.810538342611168,0,0
1.2,-1.57701458754829,1.05299338573241,0.821124557351027,0,0
1.21,-1.49119066441641,1.09188244859648,0.831848936522671,0,0
1.22,-1.35172678932711,1.06983323975841,0.842657514964446,0,0
1.23,-1.86667032811839,1.06983323975841,0.85335584736203,0,0
1.24,-1.81303037616096,1.12414565895377,0.864325741855591,0,0
1.25,-1.84521434733542,1.10813147778087,0.875487127539264,0,0
1.26,-1.75939042420354,1.05299338573241,0.88629275185683,0,0
1.27,-1.72720645302908,1.09732552677786,0.897044346419382,0,0
1.28,-1.89885429929284,1.13469622493209,0.908204455177931,0,0
1.29,-1.16935095267186,1.13469622493209,0.919551417427252,0,0
1.3,-1.66283851068017,1.06424956223938,0.93054614636311,0,0
1.31,-1.55555860676532,1.13469622493209,0.941540875298967,0,0
1.32,-1.26590286619523,1.08091406745518,0.952618926760904,0,0
1.33,-1.23371889502077,1.12414565895377,0.963644225392948,0,0
1.34,-1.37318277011008,1.06983323975841,0.974614119886509,0,0
1.35,-1.43755071245899,1.03587980958237,0.985142685133213,0,0
1.36,-1.43755071245899,1.08091406745518,0.995726654518401,0,0
1.37,-1.49119066441641,1.09188244859648,1.00659063709866,0,0
1.38,-1.55555860676532,1.06424956223938,1.01737129715284,0,0
1.39,-1.72720645302908,1.06983323975841,1.02804171116283,0,0
1.4,-1.60919855872275,1.08091406745518,1.0387954476989,0,0
1.41,-1.43755071245899,1.09188244859648,1.04965943027915,0,0
1.42,-1.57701458754829,1.08091406745518,1.06052341285941,0,0
1.43,-1.43755071245899,1.06424956223938,1.07124923100788,0,0
1.44,-1.6413825298972,1.12414565895377,1.08219120711385,0,0
1.45,-1.2873588469782,1.08091406745518,1.0932165057459,0,0
1.46,-1.01915908719107,1.08091406745518,1.10402564642045,0,0
1.47,-1.0727990391485,1.08091406745518,1.114834787095,0,0
1.48,-1.0727990391485,1.00671089647132,1.12527291191463,0,0
1.49,-0.836783250535829,1.00671089647132,1.13534002087934,0,0
1.5,-0.686591385055039,0.988796611330308,1.14531755841835,0,0
1.51,-0.718775356229494,0.994803884563969,1.15523556089782,0,0
1.52,-0.772415308186919,0.964393393754461,1.16503154728942,0,0
1.53,-0.632951433097614,1.02431192493785,1.17497507388288,0,0
1.54,-0.654407413880584,0.988796611330308,1.18504061656422,0,0
1.55,-0.600767461923159,1.00671089647132,1.19501815410323,0,0
1.56,-0.804599279361374,0.976671223210643,1.20493506470164,0,0
1.57,-0.718775356229494,0.958195485144855,1.21460939824341,0,0
1.58,-0.772415308186919,0.958195485144855,1.22419135309486,0,0
1.59,-0.858239231318799,1.00671089647132,1.23401588500294,0,0
1.6,-0.804599279361374,0.958195485144855,1.24384041691102,0,0
1.61,-0.547127509965734,0.988796611330308,1.2535753773934,0,0
1.62,-0.836783250535829,1.00671089647132,1.26355291493241,0,0
1.63,-0.686591385055039,0.994803884563969,1.27356048883759,0,0
1.64,-0.890423202493254,0.988796611330308,1.28347849131706,0,0
1.65,-0.654407413880584,1.00671089647132,1.29345602885606,0,0
1.66,-0.514943538791279,0.926584284847131,1.30312250476266,0,0
1.67,-0.632951433097614,1.02431192493785,1.31287698581158,0,0
1.68,-0.225287798221185,0.988796611330308,1.32294252849292,0,0
1.69,-0.568583490748704,0.970551723548267,1.33273927016732,0,0
1.7,-0.450575596442369,0.945677813751311,1.34232041785381,0,0
1.71,-0.514943538791279,0.988796611330308,1.35199278997922,0,0
1.72,-0.514943538791279,0.939356427165001,1.3616335551717,0,0
1.73,-0.429119615659399,0.988796611330308,1.37127432036417,0,0
1.74,-0.396935644484945,0.976671223210643,1.38110165953688,0,0
1.75,-0.25747176939564,0.958195485144855,1.39077599307866,0,0
1.76,-0.311111721353065,0.976671223210643,1.40045032662043,0,0
1.77,-0.27892775017861,0.939356427165001,1.41003046487231,0,0
1.78,-0.10727990391485,0.945677813751311,1.41945563607689,0,0
1.79,-0.25747176939564,0.926584284847131,1.42881694656989,0,0
1.8,0,0.907088940749406,1.43798531269787,0,0
1.81,-0.160919855872275,0.945677813751311,1.44724914647037,0,0
1.82,0.0858239231318799,0.89385585308782,1.45644681480457,0,0
1.83,-0.0429119615659399,0.89385585308782,1.46538537333545,0,0
1.84,0,0.89385585308782,1.47432393186632,0,0
1.85,0.0643679423489099,0.89385585308782,1.4832624903972,0,0
1.86,-0.0750959327403949,0.893855853087819,1.49220104892808,0,0
1.87,0.118007894306335,0.89385585308782,1.50113960745896,0,0
1.88,0.289655740570095,0.852925615225487,1.50987351480053,0,0
1.89,0.407663634876429,0.859882628777345,1.51843755602054,0,0
1.9,0.665135404272069,0.852925615225487,1.52700159724055,0,0
1.91,0.643679423489099,0.880423889821731,1.53566834476579,0,0
1.92,0.976247125625134,0.809929579726655,1.54412011211353,0,0
1.93,1.06207104875701,0.809929579726655,1.5522194079108,0,0
1.94,1.49119066441641,0.764519288915994,1.56009165225401,0,0
1.95,1.78084640498651,0.748770781210172,1.56765810260464,0,0
1.96,2.09195812633957,0.73268384891682,1.57506537575528,0,0
1.97,2.499621761216,0.707868301287588,1.5822681365063,0,0
1.98,2.70345357865422,0.636984529361327,1.58899240065954,0,0
1.99,2.96092534804986,0.588361402387474,1.59511913031829,0,0
2,3.30422104057738,0.567747372947536,1.60089967419496,0,0
2.01,3.77625261780272,0.557154421434099,1.60652418316687,0,0
2.02,4.22682821424508,0.476454445006785,1.61169222749908,0,0
2.03,4.51648395481518,0.46378099141886,1.6163934046812,0,0
2.04,4.79541170499379,0.437333680009823,1.62089897803835,0,0
2.05,5.12797940712982,0.346070175946087,1.62481599731813,0,0
2.06,5.38545117652546,0.346070175946087,1.62827669907759,0,0
2.07,5.6429229459211,0.409180507038652,1.63205295249251,0,0
2.08,6.39388227332505,0.524092509799345,1.6367193175767,0,0
2.09,7.19848155268643,0.46378099141886,1.64165868508279,0,0
2.1,7.7885210242181,0.557154421434099,1.64676336214706,0,0
2.11,8.45365642849017,0.524092509799345,1.65216959680322,0,0
2.12,9.12951982315372,0.524092509799345,1.65741052190122,0,0
2.13,9.75174326585985,0.557154421434099,1.66281675655739,0,0
2.14,10.3203267566086,0.546356128508048,1.6683343093071,0,0
2.15,10.727990391485,0.557154421434099,1.67385186205681,0,0
2.16,11.2751179014507,0.524092509799345,1.67925809671297,0,0
2.17,11.6935095267186,0.578146270120367,1.68476929061257,0,0
2.18,12.1119011519865,0.578146270120367,1.69055075331378,0,0
2.19,12.5302927772545,0.608277239546148,1.69648287086211,0,0
2.2,12.9165004313479,0.608277239546148,1.70256564325757,0,0
2.21,13.2168841623095,0.627561359932563,1.70874483625496,0,0
2.22,13.5923638260115,0.627561359932563,1.71502044985429,0,0
2.23,13.8927475569731,0.627561359932563,1.72129606345361,0,0
2.24,14.2253152591091,0.627561359932563,1.72757167705294,0,0
2.25,14.6329788939855,0.627561359932563,1.73384729065227,0,0
2.26,14.9440906153386,0.655424557806768,1.74026222024096,0,0
2.27,15.2337463559087,0.627561359932563,1.74667714982966,0,0
2.28,15.5234020964788,0.655424557806768,1.75309207941836,0,0
2.29,15.8130578370489,0.655424557806768,1.75964632499642,0,0
2.3,16.0168896544871,0.673359793354729,1.76629024675223,0,0
2.31,16.1885375007508,0.655424557806768,1.77293416850804,0,0
2.32,16.4030973085805,0.673359793354729,1.77957809026385,0,0
2.33,16.5425611836699,0.673359793354729,1.78631168819739,0,0
2.34,16.6605690779762,0.673359793354729,1.79304528613094,0,0
2.35,16.7463930011081,0.673359793354729,1.79977888406449,0,0
2.36,16.9073128569803,0.699400816272409,1.80664268711262,0,0
2.37,17.0896886936356,0.673359793354729,1.81350649016076,0,0
2.38,17.2398805591164,0.699400816272409,1.82037029320889,0,0
2.39,17.3257044822483,0.699400816272409,1.82736430137162,0,0
2.4,17.4437123765546,0.699400816272409,1.83435830953434,0,0
2.41,17.5831762516439,0.699400816272409,1.84135231769707,0,0
2.42,17.7333681171247,0.699400816272409,1.84834632585979,0,0
2.43,17.8084640498651,0.724506447382148,1.85546586217806,0,0
2.44,17.9264719441714,0.724506447382148,1.86271092665188,0,0
2.45,17.9801118961288,0.724506447382148,1.86995599112571,0,0
2.46,18.0444798384777,0.724506447382148,1.87720105559953,0,0
2.47,18.0981197904352,0.724506447382148,1.88444612007335,0,0
2.48,18.1303037616096,0.740770985277385,1.89177250723665,0,0
2.49,18.2161276847415,0.724506447382148,1.89909889439994,0,0
2.5,18.248311655916,0.740770985277385,1.90642528156324,0,0
2.51,18.2697676366989,0.740770985277385,1.91383299141602,0,0
2.52,18.2697676366989,0.724506447382148,1.92115937857931,0,0
2.53,18.3019516078734,0.724506447382148,1.92840444305313,0,0
2.54,18.3341355790478,0.740770985277385,1.93573083021643,0,0
2.55,18.3341355790478,0.740770985277385,1.94313854006921,0,0
2.56,18.3663195502223,0.740770985277385,1.95054624992198,0,0
2.57,18.3663195502223,0.764519288915994,1.95807270129295,0,0
2.58,18.3663195502223,0.740770985277385,1.96559915266391,0,0
2.59,18.3663195502223,0.716235688955136,1.97288418603508,0,0
2.6,18.3341355790478,0.740770985277385,1.98016921940624,0,0
2.61,18.3341355790478,0.740770985277385,1.98757692925901,0,0
2.62,18.3341355790478,0.740770985277385,1.99498463911179,0,0
2.63,18.3663195502223,0.764519288915994,2.00251109048275,0,0
2.64,18.3877755310053,0.740770985277385,2.01003754185372,0,0
2.65,18.3877755310053,0.764519288915994,2.01756399322469,0,0
2.66,18.3877755310053,0.740770985277385,2.02509044459565,0,0
2.67,18.4199595021797,0.740770985277385,2.03249815444843,0,0
2.68,18.4199595021797,0.740770985277385,2.0399058643012,0,0
2.69,18.4521434733542,0.699400816272409,2.04710672330895,0,0
2.7,18.4199595021797,0.655424557806768,2.05388085017935,0,0
2.71,18.4521434733542,0.608277239546148,2.06019935916611,0,0
2.72,18.4521434733542,0.557154421434099,2.06602651747101,0,0
2.73,18.4521434733542,0.524092509799345,2.07143275212718,0,0
2.74,18.4843274445286,0.524092509799345,2.07667367722517,0,0
2.75,18.5165114157031,0.450751348124659,2.08154789651479,0,0
2.76,18.5165114157031,0.450751348124659,2.08605540999604,0,0
2.77,18.5486953868775,0.394350931500288,2.09028092139416,0,0
2.78,18.5486953868775,0.394350931500288,2.09422443070917,0,0
2.79,18.5486953868775,0.362878212138203,2.09801057642736,0,0
2.8,18.5701513676605,0.362878212138203,2.10163935854874,0,0
2.81,18.5701513676605,0.268515262170148,2.10479632592028,0,0
2.82,18.602335338835,0.30972973113479,2.10768755088681,0,0
2.83,18.6667032811839,0.268515262170148,2.11057877585333,0,0
2.84,18.7525272043158,0.268515262170148,2.11326392847503,0,0
2.85,18.7525272043158,0.19066293693981,2.11555981947058,0,0
2.86,18.7525272043158,0.19066293693981,2.11746644883998,0,0
2.87,18.8168951466647,0.268515262170148,2.11976233983553,0,0
2.88,18.8490791178391,0.30972973113479,2.12265356480206,0,0
2.89,18.8812630890136,0.19066293693981,2.12515552814243,0,0
2.9,18.934903040971,0.19066293693981,2.12706215751183,0,0
2.91,18.934903040971,0.268515262170148,2.12935804850738,0,0
2.92,18.9670870121455,0.268515262170148,2.13204320112908,0,0
2.93,19.0207269641029,0.268515262170148,2.13472835375078,0,0
2.94,18.9885429929284,0.268515262170148,2.13741350637248,0,0
2.95,19.0207269641029,0.268515262170148,2.14009865899418,0,0
2.96,19.0529109352773,0.268515262170148,2.14278381161589,0,0
2.97,19.1065508872348,0.268515262170148,2.14546896423759,0,0
2.98,19.1065508872348,0.19066293693981,2.14776485523314,0,0
2.99,19.1065508872348,0.268515262170148,2.15006074622869,0,0
3,19.1065508872348,0.268515262170148,2.15274589885039,0,0
3.01,19.1065508872348,0.268515262170148,2.15543105147209,0,0
3.02,19.1065508872348,0.268515262170148,2.15811620409379,0,0
3.03,19.1494628488007,0.268515262170148,2.16080135671549,0,0
3.04,19.1494628488007,0.268515262170148,2.16348650933719,0,0
3.05,19.1494628488007,0.268515262170148,2.1661716619589,0,0
3.06,19.2031028007581,0.268515262170148,2.1688568145806,0,0
3.07,19.1816468199752,0.268515262170148,2.1715419672023,0,0
3.08,19.2031028007581,0.268515262170148,2.174227119824,0,0
3.09,19.1816468199752,0.268515262170148,2.1769122724457,0,0
3.1,19.1816468199752,0.0245818027557917,2.17837775777033,0,0
3.11,19.2031028007581,0.268515262170148,2.17984324309496,0,0
3.12,19.1494628488007,0.268515262170148,2.18252839571666,0,0
3.13,19.1494628488007,0.268515262170148,2.18521354833837,0,0
3.14,19.1065508872348,0.30972973113479,2.18810477330489,0,0
3.15,19.1494628488007,0.30972973113479,2.19120207061624,0,0
3.16,19.1065508872348,0.268515262170148,2.19409329558276,0,0
3.17,19.0529109352773,0.268515262170148,2.19677844820446,0,0
3.18,19.1065508872348,0.268515262170148,2.19946360082616,0,0
3.19,19.1065508872348,0.19066293693981,2.20175949182171,0,0
3.2,19.1065508872348,0.30972973113479,2.20426145516209,0,0
3.21,19.0850949064518,0.30972973113479,2.20735875247344,0,0
3.22,19.0207269641029,0.268515262170148,2.21024997743996,0,0
3.23,18.9885429929284,0.30972973113479,2.21314120240648,0,0
