Time [s],Pressure [cmH2O],Flow [L/s],V_tidal [L],Inspiratory Indicies,Weight [kg]
0,26.787792007538,-0.287763698423059,0,308,59
0.01,26.8736159306699,-0.242849512660806,-0.00265306605541932,760,0
0.02,26.9379838730188,-0.344319672144806,-0.00558891197944738,1137,0
0.03,26.9594398538018,-0.242849512660806,-0.00852475790347544,1600,0
0.04,26.9594398538018,-0.152406677359627,-0.0105010388535776,2068,0
0.05,27.0238077961507,-0.242849512660806,-0.0124773198036798,2497,0
0.06,27.0774477481081,-0.242849512660806,-0.0149058149302878,2930,0
0.07,27.141815690457,-0.287763698423059,-0.0175588809857072,3327,0
0.08,27.2383676039804,-0.152406677359627,-0.0197597328646206,3700,0
0.09,27.3778314790697,-0.242849512660806,-0.0217360138147228,4055,0
0.1,27.495839373376,-0.242849512660806,-0.0241645089413308,0,0
0.11,27.6460312388568,-0.242849512660806,-0.0265930040679389,0,0
0.12,27.7533111427717,-0.152406677359627,-0.028569285018041,0,0
0.13,27.8069510947291,-0.242849512660806,-0.0305455659681432,0,0
0.14,27.871319037078,-0.242849512660806,-0.0329740610947513,0,0
0.15,27.9571429602099,-0.242849512660806,-0.0354025562213593,0,0
0.16,27.9785989409928,-0.242849512660806,-0.0378310513479674,0,0
0.17,27.9249589890354,-0.287763698423059,-0.0404841174033867,0,0
0.18,27.892775017861,-0.242849512660806,-0.043137183458806,0,0
0.19,27.8391350659035,-0.242849512660806,-0.0455656785854141,0,0
0.2,27.8069510947291,-0.242849512660806,-0.0479941737120222,0,0
0.21,27.7211271715972,-0.242849512660806,-0.0504226688386302,0,0
0.22,27.5816632965079,-0.242849512660806,-0.0528511639652383,0,0
0.23,27.4421994214186,-0.216932836689902,-0.0551500757119918,0,0
0.24,27.3241915271123,-0.242849512660806,-0.0574489874587454,0,0
0.25,27.2061836328059,-0.242849512660806,-0.0598774825853534,0,0
0.26,27.0559917673251,-0.242849512660806,-0.0623059777119615,0,0
0.27,26.9379838730188,-0.242849512660806,-0.0647344728385695,0,0
0.28,26.8736159306699,-0.242849512660806,-0.0671629679651776,0,0
0.29,26.8199759787125,-0.242849512660806,-0.0695914630917857,0,0
0.3,26.8199759787125,-0.242849512660806,-0.0720199582183937,0,0
0.31,26.8736159306699,-0.242849512660806,-0.0744484533450018,0,0
0.32,26.9379838730188,-0.242849512660806,-0.0768769484716098,0,0
0.33,27.0559917673251,-0.242849512660806,-0.0793054435982179,0,0
0.34,27.1096317192826,-0.242849512660806,-0.081733938724826,0,0
0.35,27.1739996616315,-0.242849512660806,-0.084162433851434,0,0
0.36,27.2383676039804,-0.242849512660806,-0.0865909289780421,0,0
0.37,27.2598235847633,-0.242849512660806,-0.0890194241046501,0,0
0.38,27.2383676039804,-0.242849512660806,-0.0914479192312582,0,0
0.39,27.1739996616315,-0.242849512660806,-0.0938764143578663,0,0
0.4,27.141815690457,-0.242849512660806,-0.0963049094844743,0,0
0.41,27.141815690457,-0.152406677359627,-0.0982811904345765,0,0
0.42,27.0238077961507,-0.152406677359627,-0.0998052572081728,0,0
0.43,26.9379838730188,-0.287763698423059,-0.102006109087086,0,0
0.44,26.8736159306699,-0.242849512660806,-0.104659175142506,0,0
0.45,26.787792007538,-0.287763698423059,-0.107312241197925,0,0
0.46,26.6590561228402,-0.242849512660806,-0.109965307253344,0,0
0.47,26.5625042093168,-0.152406677359627,-0.111941588203446,0,0
0.48,26.5303202381424,-0.152406677359627,-0.113465654977043,0,0
0.49,26.4766802861849,-0.242849512660806,-0.115441935927145,0,0
0.5,26.4230403342275,-0.242849512660806,-0.117870431053753,0,0
0.51,26.4230403342275,-0.242849512660806,-0.120298926180361,0,0
0.52,26.3908563630531,0.0245818027557917,-0.121390264729886,0,0
0.53,26.3586723918786,-0.152406677359627,-0.122029389102905,0,0
0.54,26.3586723918786,-0.152406677359627,-0.123553455876501,0,0
0.55,26.3586723918786,0.19066293693981,-0.1233621745786,0,0
0.56,26.3050324399212,-0.152406677359627,-0.1231708932807,0,0
0.57,26.2406644975723,-0.152406677359627,-0.124694960054296,0,0
0.58,26.101200622483,-0.152406677359627,-0.126219026827892,0,0
0.59,25.9831927281766,-0.152406677359627,-0.127743093601488,0,0
0.6,25.8651848338703,0.0245818027557917,-0.128382217974508,0,0
0.61,25.7686329203469,0.0245818027557917,-0.12813639994695,0,0
0.62,25.6398970356491,-0.152406677359627,-0.128775524319969,0,0
0.63,25.5862570836917,-0.242849512660806,-0.130751805270071,0,0
0.64,25.6184410548661,-0.242849512660806,-0.133180300396679,0,0
0.65,25.704264977998,-0.152406677359627,-0.135156581346781,0,0
0.66,25.8330008626958,-0.242849512660806,-0.137132862296883,0,0
0.67,25.9295527762192,-0.242849512660806,-0.139561357423491,0,0
0.68,26.0368326801341,-0.242849512660806,-0.141989852550099,0,0
0.69,26.2406644975723,-0.242849512660806,-0.144418347676708,0,0
0.7,26.3372164110956,-0.287763698423059,-0.147071413732127,0,0
0.71,26.4444963150105,-0.242849512660806,-0.149724479787546,0,0
0.72,26.5303202381424,-0.344319672144806,-0.152660325711574,0,0
0.73,26.6912400940146,-0.344319672144806,-0.156103522433022,0,0
0.74,26.7556080363636,-0.344319672144806,-0.15954671915447,0,0
0.75,26.8736159306699,-0.344319672144806,-0.162989915875918,0,0
0.76,26.9916238249762,-0.307772604848743,-0.166250377260886,0,0
0.77,27.141815690457,-0.242849512660806,-0.169003487848434,0,0
0.78,27.2598235847633,-0.344319672144806,-0.171939333772462,0,0
0.79,27.3778314790697,-0.242849512660806,-0.17487517969649,0,0
0.8,27.495839373376,-0.344319672144806,-0.177811025620518,0,0
0.81,27.6460312388568,-0.344319672144806,-0.181254222341966,0,0
0.82,27.7533111427717,-0.242849512660806,-0.184190068265994,0,0
0.83,27.8391350659035,-0.307772604848743,-0.186943178853542,0,0
0.84,27.892775017861,-0.287763698423059,-0.189920860369901,0,0
0.85,27.9571429602099,-0.287763698423059,-0.192798497354132,0,0
0.86,27.9785989409928,-0.242849512660806,-0.195451563409551,0,0
0.87,28.0429668833418,-0.242849512660806,-0.197880058536159,0,0
0.88,28.0966068352992,-0.242849512660806,-0.200308553662767,0,0
0.89,28.1287908064736,-0.242849512660806,-0.202737048789375,0,0
0.9,28.1824307584311,-0.242849512660806,-0.205165543915983,0,0
0.91,28.2146147296055,-0.242849512660806,-0.207594039042591,0,0
0.92,28.2146147296055,-0.242849512660806,-0.210022534169199,0,0
0.93,28.1824307584311,-0.242849512660806,-0.212451029295807,0,0
0.94,28.1287908064736,-0.242849512660806,-0.214879524422415,0,0
0.95,28.1287908064736,-0.242849512660806,-0.217308019549023,0,0
0.96,28.0966068352992,-0.242849512660806,-0.219736514675631,0,0
0.97,28.0751508545162,-0.242849512660806,-0.22216500980224,0,0
0.98,28.1287908064736,-0.242849512660806,-0.224593504928848,0,0
0.99,28.1609747776481,-0.287763698423059,-0.227246570984267,0,0
1,28.24679870078,-0.242849512660806,-0.229899637039686,0,0
1.01,28.2789826719544,-0.242849512660806,-0.232328132166294,0,0
1.02,28.24679870078,-0.242849512660806,-0.234756627292902,0,0
1.03,28.1609747776481,-0.152406677359627,-0.236732908243004,0,0
1.04,28.0966068352992,-0.242849512660806,-0.238709189193107,0,0
1.05,27.9571429602099,-0.344319672144806,-0.241645035117135,0,0
1.06,27.8391350659035,-0.307772604848743,-0.244905496502102,0,0
1.07,27.7533111427717,-0.307772604848743,-0.24798322255059,0,0
1.08,27.5816632965079,-0.242849512660806,-0.250736333138138,0,0
1.09,27.495839373376,-0.307772604848743,-0.253489443725685,0,0
1.1,27.3778314790697,-0.242849512660806,-0.256242554313233,0,0
1.11,27.2920075559378,-0.307772604848743,-0.258995664900781,0,0
1.12,27.1739996616315,-0.242849512660806,-0.261748775488329,0,0
1.13,27.0774477481081,-0.307772604848743,-0.264501886075876,0,0
1.14,26.9916238249762,-0.307772604848743,-0.267579612124364,0,0
1.15,26.8199759787125,-0.307772604848743,-0.270657338172851,0,0
1.16,26.6054161708828,-0.242849512660806,-0.273410448760399,0,0
1.17,26.3586723918786,-0.307772604848743,-0.276163559347947,0,0
1.18,26.101200622483,-0.242849512660806,-0.278916669935494,0,0
1.19,25.8973688050448,-0.242849512660806,-0.281345165062102,0,0
1.2,25.6184410548661,-0.242849512660806,-0.28377366018871,0,0
1.21,25.4682491893854,-0.307772604848743,-0.286526770776258,0,0
1.22,25.3180573239046,-0.242849512660806,-0.289279881363806,0,0
1.23,25.2644173719471,-0.307772604848743,-0.292032991951354,0,0
1.24,25.2000494295982,-0.307772604848743,-0.295110717999841,0,0
1.25,25.2000494295982,-0.307772604848743,-0.298188444048329,0,0
1.26,25.1034975160749,-0.152406677359627,-0.30048934045937,0,0
1.27,25.1678654584238,-0.242849512660806,-0.302465621409473,0,0
1.28,25.1678654584238,-0.242849512660806,-0.304894116536081,0,0
1.29,25.2000494295982,-0.242849512660806,-0.307322611662689,0,0
1.3,25.3824252662535,-0.242849512660806,-0.309751106789297,0,0
1.31,25.4360652182109,-0.242849512660806,-0.312179601915905,0,0
1.32,25.5218891413428,-0.242849512660806,-0.314608097042513,0,0
1.33,25.6398970356491,-0.242849512660806,-0.317036592169121,0,0
1.34,25.704264977998,-0.242849512660806,-0.319465087295729,0,0
1.35,25.8973688050448,-0.242849512660806,-0.321893582422337,0,0
1.36,25.8651848338703,-0.242849512660806,-0.324322077548945,0,0
1.37,25.9510087570022,-0.242849512660806,-0.326750572675553,0,0
1.38,25.9295527762192,-0.242849512660806,-0.329179067802161,0,0
1.39,25.8973688050448,-0.242849512660806,-0.331607562928769,0,0
1.4,25.7686329203469,-0.242849512660806,-0.334036058055377,0,0
1.41,25.7364489491725,-0.242849512660806,-0.336464553181985,0,0
1.42,25.6398970356491,-0.242849512660806,-0.338893048308593,0,0
1.43,25.5004331605598,-0.242849512660806,-0.341321543435201,0,0
1.44,25.4146092374279,-0.152406677359627,-0.343297824385303,0,0
1.45,25.2966013431216,-0.242849512660806,-0.345274105335405,0,0
1.46,25.1356814872493,-0.242849512660806,-0.347702600462013,0,0
1.47,25.017673592943,-0.187466864989695,-0.349854182350266,0,0
1.48,24.8138417755048,-0.242849512660806,-0.352005764238518,0,0
1.49,24.620737948458,-0.242849512660806,-0.354434259365126,0,0
1.5,24.4812740733687,0.0245818027557917,-0.355525597914652,0,0
1.51,24.3310822078879,-0.152406677359627,-0.356164722287671,0,0
1.52,24.1916183327986,-0.242849512660806,-0.358141003237773,0,0
1.53,24.1272503904497,-0.152406677359627,-0.360117284187875,0,0
1.54,24.0950664192753,-0.242849512660806,-0.362093565137977,0,0
1.55,24.0950664192753,-0.152406677359627,-0.364069846088079,0,0
1.56,24.1594343616242,-0.152406677359627,-0.365593912861676,0,0
1.57,24.1594343616242,-0.242849512660806,-0.367570193811778,0,0
1.58,24.1916183327986,-0.242849512660806,-0.369998688938386,0,0
1.59,24.1594343616242,-0.242849512660806,-0.372427184064994,0,0
1.6,24.1272503904497,-0.242849512660806,-0.374855679191602,0,0
1.61,24.0736104384923,-0.242849512660806,-0.37728417431821,0,0
1.62,24.0414264673179,-0.242849512660806,-0.379712669444818,0,0
1.63,24.0414264673179,-0.242849512660806,-0.382141164571426,0,0
1.64,24.0092424961434,-0.152406677359627,-0.384117445521528,0,0
1.65,23.9877865153604,-0.242849512660806,-0.38609372647163,0,0
1.66,24.0092424961434,-0.152406677359627,-0.388070007421732,0,0
1.67,24.0092424961434,-0.242849512660806,-0.390046288371835,0,0
1.68,24.0092424961434,-0.152406677359627,-0.392022569321937,0,0
1.69,24.0414264673179,-0.242849512660806,-0.393998850272039,0,0
1.7,24.0950664192753,-0.242849512660806,-0.396427345398647,0,0
1.71,24.1272503904497,-0.152406677359627,-0.398403626348749,0,0
1.72,24.1272503904497,-0.242849512660806,-0.400379907298851,0,0
1.73,24.1272503904497,-0.242849512660806,-0.402808402425459,0,0
1.74,24.1272503904497,-0.152406677359627,-0.404784683375562,0,0
1.75,24.1594343616242,-0.152406677359627,-0.406308750149158,0,0
1.76,24.1272503904497,-0.152406677359627,-0.407832816922754,0,0
1.77,24.1272503904497,0.0245818027557917,-0.408471941295773,0,0
1.78,24.0950664192753,-0.242849512660806,-0.409563279845298,0,0
1.79,24.0950664192753,-0.242849512660806,-0.411991774971906,0,0
1.8,24.0950664192753,-0.242849512660806,-0.414420270098514,0,0
1.81,24.1272503904497,-0.242849512660806,-0.416848765225122,0,0
1.82,24.1272503904497,-0.242849512660806,-0.41927726035173,0,0
1.83,24.1594343616242,-0.187466864989695,-0.421428842239983,0,0
1.84,24.1594343616242,-0.187466864989695,-0.42330351088988,0,0
1.85,24.1916183327986,-0.187466864989695,-0.425178179539777,0,0
1.86,24.1916183327986,-0.307772604848743,-0.427654376888969,0,0
1.87,24.2130743135816,-0.344319672144806,-0.430914838273937,0,0
1.88,24.2774422559305,-0.307772604848743,-0.434175299658904,0,0
1.89,24.2774422559305,-0.307772604848743,-0.437253025707392,0,0
1.9,24.2774422559305,-0.307772604848743,-0.440330751755879,0,0
1.91,24.2988982367135,-0.242849512660806,-0.443083862343427,0,0
1.92,24.2988982367135,-0.307772604848743,-0.445836972930975,0,0
1.93,24.2988982367135,-0.307772604848743,-0.448914698979462,0,0
1.94,24.3310822078879,-0.242849512660806,-0.45166780956701,0,0
1.95,24.3632661790624,-0.242849512660806,-0.454096304693618,0,0
1.96,24.3632661790624,-0.242849512660806,-0.456524799820226,0,0
1.97,24.3954501502369,-0.307772604848743,-0.459277910407774,0,0
1.98,24.3310822078879,-0.242849512660806,-0.462031020995322,0,0
1.99,24.3310822078879,-0.242849512660806,-0.46445951612193,0,0
2,24.3632661790624,-0.242849512660806,-0.466888011248538,0,0
2.01,24.2988982367135,-0.152406677359627,-0.46886429219864,0,0
2.02,24.2774422559305,-0.242849512660806,-0.470840573148742,0,0
2.03,24.2774422559305,-0.287763698423059,-0.473493639204161,0,0
2.04,24.2988982367135,-0.307772604848743,-0.47647132072052,0,0
2.05,24.2988982367135,-0.242849512660806,-0.479224431308068,0,0
2.06,24.3310822078879,-0.242849512660806,-0.481652926434676,0,0
2.07,24.3632661790624,-0.242849512660806,-0.484081421561284,0,0
2.08,24.3954501502369,-0.242849512660806,-0.486509916687892,0,0
2.09,24.3310822078879,-0.242849512660806,-0.4889384118145,0,0
2.1,24.3310822078879,-0.242849512660806,-0.491366906941108,0,0
2.11,24.2988982367135,-0.287763698423059,-0.494019972996527,0,0
2.12,24.2774422559305,-0.242849512660806,-0.496673039051947,0,0
2.13,24.2774422559305,-0.242849512660806,-0.499101534178555,0,0
2.14,24.2774422559305,-0.242849512660806,-0.501530029305163,0,0
2.15,24.2774422559305,-0.242849512660806,-0.503958524431771,0,0
2.16,24.2988982367135,-0.242849512660806,-0.506387019558379,0,0
2.17,24.2774422559305,-0.242849512660806,-0.508815514684987,0,0
2.18,24.2988982367135,-0.152406677359627,-0.510791795635089,0,0
2.19,24.2452582847561,-0.152406677359627,-0.512315862408685,0,0
2.2,24.2452582847561,-0.152406677359627,-0.513839929182282,0,0
2.21,24.1916183327986,-0.242849512660806,-0.515816210132384,0,0
2.22,24.1916183327986,-0.152406677359627,-0.517792491082486,0,0
2.23,24.1272503904497,-0.242849512660806,-0.519768772032588,0,0
2.24,24.1272503904497,-0.242849512660806,-0.522197267159196,0,0
2.25,24.1272503904497,-0.242849512660806,-0.524625762285804,0,0
2.26,24.1272503904497,-0.242849512660806,-0.527054257412412,0,0
2.27,24.0736104384923,-0.152406677359627,-0.529030538362514,0,0
2.28,24.0736104384923,-0.242849512660806,-0.531006819312617,0,0
2.29,24.0414264673179,-0.242849512660806,-0.533435314439225,0,0
2.3,24.0092424961434,-0.242849512660806,-0.535863809565833,0,0
2.31,24.0092424961434,-0.242849512660806,-0.538292304692441,0,0
2.32,23.9877865153604,-0.242849512660806,-0.540720799819049,0,0
2.33,23.9877865153604,-0.242849512660806,-0.543149294945657,0,0
2.34,23.955602544186,-0.242849512660806,-0.545577790072265,0,0
2.35,23.9234185730115,-0.152406677359627,-0.547554071022367,0,0
2.36,23.8590506306626,-0.152406677359627,-0.549078137795963,0,0
2.37,23.8590506306626,-0.152406677359627,-0.55060220456956,0,0
2.38,23.7732267075307,-0.242849512660806,-0.552578485519662,0,0
2.39,23.6981307747903,-0.152406677359627,-0.554554766469764,0,0
2.4,23.6766747940074,-0.152406677359627,-0.55607883324336,0,0
2.41,23.6766747940074,0.0245818027557917,-0.556717957616379,0,0
2.42,23.6123068516585,-0.242849512660806,-0.557809296165904,0,0
2.43,23.558666899701,-0.242849512660806,-0.560237791292512,0,0
2.44,23.5264829285266,-0.152406677359627,-0.562214072242615,0,0
2.45,23.4942989573521,-0.242849512660806,-0.564190353192717,0,0
2.46,23.4728429765692,-0.242849512660806,-0.566618848319325,0,0
2.47,23.3762910630458,-0.242849512660806,-0.569047343445933,0,0
2.48,23.3226511110884,-0.152406677359627,-0.571023624396035,0,0
2.49,23.226099197565,-0.242849512660806,-0.572999905346137,0,0
2.5,23.1080913032587,-0.242849512660806,-0.575428400472745,0,0
2.51,23.0759073320842,-0.152406677359627,-0.577404681422847,0,0
2.52,23.0544513513012,-0.152406677359627,-0.578928748196444,0,0
2.53,23.0222673801268,-0.242849512660806,-0.580905029146546,0,0
2.54,22.9042594858204,-0.242849512660806,-0.583333524273154,0,0
2.55,22.872075514646,-0.242849512660806,-0.585762019399762,0,0
2.56,22.850619533863,-0.242849512660806,-0.58819051452637,0,0
2.57,22.7862515915141,-0.242849512660806,-0.590619009652978,0,0
2.58,22.7647956107311,-0.242849512660806,-0.593047504779586,0,0
2.59,22.7647956107311,-0.152406677359627,-0.595023785729688,0,0
2.6,22.7218836491652,-0.242849512660806,-0.59700006667979,0,0
2.61,22.6253317356418,-0.152406677359627,-0.598976347629892,0,0
2.62,22.5931477644674,-0.242849512660806,-0.600952628579995,0,0
2.63,22.5073238413355,-0.307772604848743,-0.603705739167542,0,0
2.64,22.4536838893781,-0.242849512660806,-0.60645884975509,0,0
2.65,22.3893159470292,-0.242849512660806,-0.608887344881698,0,0
2.66,22.3034920238973,-0.242849512660806,-0.611315840008306,0,0
2.67,22.1533001584165,-0.242849512660806,-0.613744335134914,0,0
2.68,22.0460202545016,-0.307772604848743,-0.616497445722462,0,0
2.69,21.8529164274549,-0.242849512660806,-0.61925055631001,0,0
2.7,21.6705405907997,-0.242849512660806,-0.621679051436618,0,0
2.71,21.5310767157104,-0.242849512660806,-0.624107546563226,0,0
2.72,21.3487008790551,-0.307772604848743,-0.626860657150774,0,0
2.73,21.1985090135743,-0.187466864989695,-0.629336854499966,0,0
2.74,21.0483171480935,-0.242849512660806,-0.631488436388218,0,0
2.75,20.8766693018298,-0.242849512660806,-0.633916931514826,0,0
2.76,20.7157494459575,-0.242849512660806,-0.636345426641434,0,0
2.77,20.5655575804767,-0.307772604848743,-0.639098537228982,0,0
2.78,20.4475496861704,-0.242849512660806,-0.64185164781653,0,0
2.79,20.329541791864,-0.242849512660806,-0.644280142943138,0,0
2.8,20.2437178687322,-0.242849512660806,-0.646708638069746,0,0
2.81,20.1257099744258,-0.242849512660806,-0.649137133196354,0,0
2.82,20.0077020801195,-0.242849512660806,-0.651565628322962,0,0
2.83,19.8682382050302,0.0245818027557917,-0.652656966872487,0,0
2.84,19.7716862915068,-0.152406677359627,-0.653296091245506,0,0
2.85,19.642950406809,-0.152406677359627,-0.654820158019103,0,0
2.86,19.5571264836771,-0.152406677359627,-0.656344224792699,0,0
2.87,19.4391185893708,-0.152406677359627,-0.657868291566295,0,0
2.88,19.28892672389,-0.152406677359627,-0.659392358339892,0,0
2.89,19.2031028007581,0.0245818027557917,-0.660031482712911,0,0
2.9,19.0529109352773,0.0245818027557917,-0.659785664685353,0,0
2.91,18.9027190697965,0.19066293693981,-0.658709440986875,0,0
2.92,18.7203432331413,-0.152406677359627,-0.658518159688974,0,0
2.93,18.5701513676605,0.0245818027557917,-0.659157284061993,0,0
2.94,18.4199595021797,-0.187466864989695,-0.659971709373162,0,0
2.95,17.9801118961288,-0.187466864989695,-0.661846378023059,0,0
2.96,17.2613365398993,0.0245818027557917,-0.662660803334229,0,0
2.97,16.6283851068017,-0.242849512660806,-0.663752141883754,0,0
2.98,16.102713577619,-0.242849512660806,-0.666180637010362,0,0
2.99,15.5019461156958,0.0245818027557917,-0.667271975559887,0,0
3,14.9119066441641,-0.242849512660806,-0.668363314109412,0,0
3.01,14.1394913359772,-0.242849512660806,-0.67079180923602,0,0
3.02,13.249068133484,-0.187466864989695,-0.672943391124272,0,0
3.03,12.144085123161,-0.187466864989695,-0.674818059774169,0,0
3.04,10.8996382377487,-0.152406677359627,-0.676517427485916,0,0
3.05,9.54791144842164,-0.152406677359627,-0.678041494259512,0,0
3.06,8.17472867831156,-0.152406677359627,-0.679565561033109,0,0
3.07,7.23066552386088,0.111894124921677,0,0,0
3.08,6.30805835019317,0.245325122751503,0.0017860962383659,0,0
3.09,5.55709902278922,0.19066293693981,0.00396603653682247,0,0
3.1,5.09579543595537,0.362878212138203,0.00673374228221254,0,0
3.11,4.75249974342785,0.476454445006785,0.0109304055679375,0,0
