Time [s],Pressure [cmH2O],Flow [L/s],V_tidal [L],Inspiratory Indicies,Weight [kg]
0,11.0712860840125,-0.287763698423059,0,931,70
0.01,11.5111336900634,-0.392815640118486,-0.00340289669270772,2555,0
0.02,11.811517421025,-0.287763698423059,-0.00680579338541545,3880,0
0.03,12.0475332096376,-0.242849512660806,-0.00945885944083477,0,0
0.04,12.3157329694248,-0.287763698423059,-0.0121119254962541,0,0
0.05,12.5839327292119,-0.216932836689902,-0.0146354081718189,0,0
0.06,12.7555805754756,-0.152406677359627,-0.0164821057420666,0,0
0.07,13.0345083256543,-0.216932836689902,-0.0183288033123142,0,0
0.08,13.1525162199606,-0.216932836689902,-0.0204981316792132,0,0
0.09,13.3348920566158,-0.216932836689902,-0.0226674600461122,0,0
0.1,13.5065399028796,-0.152406677359627,-0.0245141576163599,0,0
0.11,13.5923638260115,-0.216932836689902,-0.0263608551866075,0,0
0.12,13.7425556914923,-0.216932836689902,-0.0285301835535066,0,0
0.13,13.8927475569731,-0.216932836689902,-0.0306995119204056,0,0
0.14,14.0000274608879,-0.152406677359627,-0.0325462094906532,0,0
0.15,14.1394913359772,-0.216932836689902,-0.0343929070609009,0,0
0.16,14.2574992302835,-0.242849512660806,-0.0366918188076544,0,0
0.17,14.4291470765473,-0.307772604848743,-0.0394449293952022,0,0
0.18,14.5793389420281,-0.344319672144806,-0.0427053907801699,0,0
0.19,14.7188028171174,-0.287763698423059,-0.0458658076330092,0,0
0.2,14.8582666922067,-0.287763698423059,-0.0487434446172398,0,0
0.21,14.976274586513,-0.242849512660806,-0.0513965106726592,0,0
0.22,15.1479224327768,-0.287763698423059,-0.0540495767280785,0,0
0.23,15.3195702790406,-0.287763698423059,-0.0569272137123091,0,0
0.24,15.4697621445214,-0.242849512660806,-0.0595802797677284,0,0
0.25,15.6199540100021,-0.287763698423059,-0.0622333458231477,0,0
0.26,15.7701458754829,-0.152406677359627,-0.0644341977020611,0,0
0.27,15.8666977890063,-0.216932836689902,-0.0662808952723088,0,0
0.28,15.9847056833126,-0.216932836689902,-0.0684502236392078,0,0
0.29,16.0383456352701,-0.152406677359627,-0.0702969212094555,0,0
0.3,16.102713577619,-0.287763698423059,-0.0724977730883689,0,0
0.31,16.1885375007508,-0.216932836689902,-0.0750212557639337,0,0
0.32,16.2850894142742,-0.152406677359627,-0.0768679533341814,0,0
0.33,16.3172733854487,-0.152406677359627,-0.0783920201077776,0,0
0.34,16.4030973085805,-0.216932836689902,-0.0802387176780253,0,0
0.35,16.435281279755,-0.152406677359627,-0.0820854152482729,0,0
0.36,16.4889212317124,-0.216932836689902,-0.0839321128185206,0,0
0.37,16.5425611836699,-0.287763698423059,-0.0864555954940854,0,0
0.38,16.6069291260188,-0.287763698423059,-0.089333232478316,0,0
0.39,16.6283851068017,-0.287763698423059,-0.0922108694625466,0,0
0.4,16.6927530491506,-0.307772604848743,-0.0951885509789056,0,0
0.41,16.7249370203251,-0.287763698423059,-0.0981662324952646,0,0
0.42,16.7785769722825,-0.287763698423059,-0.101043869479495,0,0
0.43,16.8429449146314,-0.287763698423059,-0.103921506463726,0,0
0.44,16.9073128569803,-0.242849512660806,-0.106574572519145,0,0
0.45,16.9716807993292,-0.287763698423059,-0.109227638574564,0,0
0.46,17.0038647705037,-0.242849512660806,-0.111880704629984,0,0
0.47,17.0896886936356,-0.152406677359627,-0.113856985580086,0,0
0.48,17.0896886936356,-0.152406677359627,-0.115381052353682,0,0
0.49,17.12187266481,-0.152406677359627,-0.116905119127278,0,0
0.5,17.1540566359845,-0.287763698423059,-0.119105971006192,0,0
0.51,17.1755126167675,-0.307772604848743,-0.122083652522551,0,0
0.52,17.2076965879419,-0.287763698423059,-0.12506133403891,0,0
0.53,17.2613365398993,-0.242849512660806,-0.127714400094329,0,0
0.54,17.2613365398993,-0.344319672144806,-0.130650246018357,0,0
0.55,17.2613365398993,-0.287763698423059,-0.133810662871197,0,0
0.56,17.2935205110738,-0.152406677359627,-0.13601151475011,0,0
0.57,17.3257044822483,-0.242849512660806,-0.137987795700212,0,0
0.58,17.3793444342057,-0.287763698423059,-0.140640861755631,0,0
0.59,17.4115284053801,-0.242849512660806,-0.143293927811051,0,0
0.6,17.4115284053801,-0.307772604848743,-0.146047038398599,0,0
0.61,17.4437123765546,-0.287763698423059,-0.149024719914958,0,0
0.62,17.497352328512,-0.242849512660806,-0.151677785970377,0,0
0.63,17.5509922804694,-0.287763698423059,-0.154330852025796,0,0
0.64,17.5509922804694,-0.287763698423059,-0.157208489010027,0,0
0.65,17.5831762516439,-0.307772604848743,-0.160186170526386,0,0
0.66,17.6153602228183,-0.287763698423059,-0.163163852042745,0,0
0.67,17.6690001747758,-0.287763698423059,-0.166041489026975,0,0
0.68,17.7011841459502,-0.242849512660806,-0.168694555082395,0,0
0.69,17.7333681171247,-0.152406677359627,-0.170670836032497,0,0
0.7,17.7548240979077,-0.242849512660806,-0.172647116982599,0,0
0.71,17.8084640498651,-0.242849512660806,-0.175075612109207,0,0
0.72,17.872831992214,-0.242849512660806,-0.177504107235815,0,0
0.73,17.894287972997,-0.307772604848743,-0.180257217823363,0,0
0.74,17.9264719441714,-0.242849512660806,-0.183010328410911,0,0
0.75,17.9264719441714,-0.242849512660806,-0.185438823537519,0,0
0.76,17.9586559153459,-0.287763698423059,-0.188091889592938,0,0
0.77,17.9586559153459,-0.242849512660806,-0.190744955648357,0,0
0.78,17.9586559153459,-0.242849512660806,-0.193173450774965,0,0
0.79,17.9801118961288,-0.287763698423059,-0.195826516830385,0,0
0.8,17.9801118961288,-0.242849512660806,-0.198479582885804,0,0
0.81,18.0122958673033,-0.242849512660806,-0.200908078012412,0,0
0.82,18.0444798384777,-0.242849512660806,-0.20333657313902,0,0
0.83,18.0444798384777,-0.242849512660806,-0.205765068265628,0,0
0.84,18.0981197904352,-0.242849512660806,-0.208193563392236,0,0
0.85,18.1303037616096,-0.287763698423059,-0.210846629447656,0,0
0.86,18.1303037616096,-0.242849512660806,-0.213499695503075,0,0
0.87,18.1624877327841,-0.287763698423059,-0.216152761558494,0,0
0.88,18.1624877327841,-0.307772604848743,-0.219130443074853,0,0
0.89,18.1624877327841,-0.216932836689902,-0.221753970282546,0,0
0.9,18.1303037616096,-0.152406677359627,-0.223600667852794,0,0
0.91,18.1303037616096,-0.152406677359627,-0.22512473462639,0,0
0.92,18.1624877327841,0.111894124921677,-0.22532729738858,0,0
0.93,18.1303037616096,-0.242849512660806,-0.225982074327276,0,0
0.94,18.0981197904352,-0.242849512660806,-0.228410569453884,0,0
0.95,18.1303037616096,-0.152406677359627,-0.230386850403986,0,0
0.96,18.1303037616096,-0.152406677359627,-0.231910917177582,0,0
0.97,18.0981197904352,-0.152406677359627,-0.233434983951178,0,0
0.98,18.1303037616096,-0.152406677359627,-0.234959050724775,0,0
0.99,18.1303037616096,-0.152406677359627,-0.236483117498371,0,0
1,18.1303037616096,-0.287763698423059,-0.238683969377284,0,0
1.01,18.1303037616096,-0.242849512660806,-0.241337035432704,0,0
1.02,18.1624877327841,-0.242849512660806,-0.243765530559312,0,0
1.03,18.1839437135671,-0.242849512660806,-0.24619402568592,0,0
1.04,18.248311655916,-0.242849512660806,-0.248622520812528,0,0
1.05,18.3019516078734,-0.242849512660806,-0.251051015939136,0,0
1.06,18.3341355790478,-0.287763698423059,-0.253704081994555,0,0
1.07,18.3663195502223,-0.287763698423059,-0.256581718978786,0,0
1.08,18.3877755310053,-0.287763698423059,-0.259459355963017,0,0
1.09,18.4521434733542,-0.307772604848743,-0.262437037479376,0,0
1.1,18.4843274445286,-0.152406677359627,-0.264737933890417,0,0
1.11,18.4843274445286,-0.216932836689902,-0.266584631460665,0,0
1.12,18.4843274445286,-0.242849512660806,-0.268883543207419,0,0
1.13,18.4843274445286,-0.152406677359627,-0.270859824157521,0,0
1.14,18.5165114157031,-0.216932836689902,-0.272706521727768,0,0
1.15,18.5486953868775,-0.152406677359627,-0.274553219298016,0,0
1.16,18.5486953868775,-0.216932836689902,-0.276399916868264,0,0
1.17,18.5486953868775,-0.216932836689902,-0.278569245235163,0,0
1.18,18.5486953868775,0.111894124921677,-0.279094438794004,0,0
1.19,18.5486953868775,-0.216932836689902,-0.279619632352845,0,0
1.2,18.5701513676605,-0.152406677359627,-0.281466329923093,0,0
1.21,18.5486953868775,-0.242849512660806,-0.283442610873195,0,0
1.22,18.5165114157031,-0.307772604848743,-0.286195721460742,0,0
1.23,18.5701513676605,-0.242849512660806,-0.28894883204829,0,0
1.24,18.5486953868775,-0.242849512660806,-0.291377327174898,0,0
1.25,18.5486953868775,-0.242849512660806,-0.293805822301506,0,0
1.26,18.5486953868775,-0.287763698423059,-0.296458888356926,0,0
1.27,18.5701513676605,-0.152406677359627,-0.298659740235839,0,0
1.28,18.5486953868775,-0.152406677359627,-0.300183807009435,0,0
1.29,18.5165114157031,-0.242849512660806,-0.302160087959537,0,0
1.3,18.5165114157031,0.0245818027557917,-0.303251426509063,0,0
1.31,18.5486953868775,0.111894124921677,-0.302569046870675,0,0
1.32,18.5165114157031,0.19066293693981,-0.301056261561368,0,0
1.33,18.5165114157031,0.111894124921677,-0.29954347625206,0,0
1.34,18.4521434733542,0.111894124921677,-0.298424535002844,0,0
1.35,18.4843274445286,0.111894124921677,-0.297305593753627,0,0
1.36,18.5165114157031,0.19066293693981,-0.295792808444319,0,0
1.37,18.4843274445286,0.111894124921677,-0.294280023135012,0,0
1.38,18.5165114157031,0.111894124921677,-0.293161081885795,0,0
1.39,18.5486953868775,-0.152406677359627,-0.293363644647985,0,0
1.4,18.5486953868775,-0.152406677359627,-0.294887711421581,0,0
1.41,18.5701513676605,0.111894124921677,-0.295090274183771,0,0
1.42,18.5701513676605,-0.242849512660806,-0.295745051122467,0,0
1.43,18.602335338835,-0.242849512660806,-0.298173546249075,0,0
1.44,18.6667032811839,-0.152406677359627,-0.300149827199177,0,0
1.45,18.6345193100094,-0.242849512660806,-0.302126108149279,0,0
1.46,18.6345193100094,-0.287763698423059,-0.304779174204698,0,0
1.47,18.6667032811839,-0.242849512660806,-0.307432240260118,0,0
1.48,18.6881592619668,-0.242849512660806,-0.309860735386726,0,0
1.49,18.6667032811839,-0.242849512660806,-0.312289230513334,0,0
1.5,18.7203432331413,-0.287763698423059,-0.314942296568753,0,0
1.51,18.6881592619668,-0.242849512660806,-0.317595362624172,0,0
1.52,18.7525272043158,0.111894124921677,-0.318250139562868,0,0
1.53,18.7525272043158,0.111894124921677,-0.317131198313651,0,0
1.54,18.7847111754902,-0.152406677359627,-0.317333761075841,0,0
1.55,18.7847111754902,-0.242849512660806,-0.319310042025943,0,0
1.56,18.8168951466647,-0.287763698423059,-0.321963108081363,0,0
1.57,18.8490791178391,-0.152406677359627,-0.324163959960276,0,0
1.58,18.9027190697965,-0.216932836689902,-0.326010657530524,0,0
1.59,18.9670870121455,-0.152406677359627,-0.327857355100771,0,0
1.6,18.9670870121455,-0.216932836689902,-0.329704052671019,0,0
1.61,18.9885429929284,-0.152406677359627,-0.331550750241267,0,0
1.62,18.9885429929284,-0.152406677359627,-0.333074817014863,0,0
1.63,19.0529109352773,-0.287763698423059,-0.335275668893776,0,0
1.64,19.1065508872348,-0.152406677359627,-0.33747652077269,0,0
1.65,19.1065508872348,-0.242849512660806,-0.339452801722792,0,0
1.66,19.1816468199752,-0.287763698423059,-0.342105867778211,0,0
1.67,19.1816468199752,-0.242849512660806,-0.344758933833631,0,0
1.68,19.1816468199752,-0.287763698423059,-0.34741199988905,0,0
1.69,19.2031028007581,-0.287763698423059,-0.35028963687328,0,0
1.7,19.1816468199752,-0.287763698423059,-0.353167273857511,0,0
1.71,19.267470743107,-0.242849512660806,-0.35582033991293,0,0
1.72,19.267470743107,-0.344319672144806,-0.358756185836958,0,0
1.73,19.267470743107,-0.287763698423059,-0.361916602689798,0,0
1.74,19.28892672389,-0.287763698423059,-0.364794239674028,0,0
1.75,19.3532946662389,-0.287763698423059,-0.367671876658259,0,0
1.76,19.3532946662389,-0.287763698423059,-0.37054951364249,0,0
1.77,19.3854786374134,-0.287763698423059,-0.37342715062672,0,0
1.78,19.4391185893708,-0.287763698423059,-0.376304787610951,0,0
1.79,19.4391185893708,-0.242849512660806,-0.37895785366637,0,0
1.8,19.4713025605453,-0.242849512660806,-0.381386348792978,0,0
1.81,19.4927585413282,-0.307772604848743,-0.384139459380526,0,0
1.82,19.5249425125027,-0.242849512660806,-0.386892569968074,0,0
1.83,19.5571264836771,-0.242849512660806,-0.389321065094682,0,0
1.84,19.5571264836771,-0.242849512660806,-0.39174956022129,0,0
1.85,19.5893104548516,-0.152406677359627,-0.393725841171392,0,0
1.86,19.6107664356346,-0.242849512660806,-0.395702122121494,0,0
1.87,19.642950406809,-0.242849512660806,-0.398130617248102,0,0
1.88,19.6965903587664,-0.307772604848743,-0.40088372783565,0,0
1.89,19.7716862915068,-0.344319672144806,-0.404144189220617,0,0
1.9,19.8360542338557,-0.287763698423059,-0.407304606073457,0,0
1.91,19.8682382050302,-0.287763698423059,-0.410182243057687,0,0
1.92,19.9218781569876,-0.344319672144806,-0.413342659910527,0,0
1.93,19.9862460993365,-0.287763698423059,-0.416503076763366,0,0
1.94,20.0077020801195,-0.344319672144806,-0.419663493616205,0,0
1.95,20.1042539936429,-0.344319672144806,-0.423106690337653,0,0
1.96,20.1578939456003,-0.216932836689902,-0.425912952881827,0,0
1.97,20.2115338975577,-0.216932836689902,-0.428082281248726,0,0
1.98,20.329541791864,-0.287763698423059,-0.430605763924291,0,0
1.99,20.4153657149959,-0.216932836689902,-0.433129246599855,0,0
2,20.5119176285193,-0.344319672144806,-0.435935509144029,0,0
2.01,20.6299255228256,-0.216932836689902,-0.438741771688203,0,0
2.02,20.747933417132,-0.216932836689902,-0.440911100055102,0,0
2.03,20.8766693018298,-0.216932836689902,-0.443080428422001,0,0
2.04,20.9624932249617,-0.307772604848743,-0.445703955629694,0,0
2.05,21.0483171480935,-0.242849512660806,-0.448457066217242,0,0
2.06,21.1126850904425,-0.287763698423059,-0.451110132272661,0,0
2.07,21.1663250423999,-0.287763698423059,-0.453987769256891,0,0
2.08,21.2199649943573,-0.287763698423059,-0.456865406241122,0,0
2.09,21.2950609270977,-0.344319672144806,-0.460025823093961,0,0
2.1,21.413068821404,-0.242849512660806,-0.462961669017989,0,0
2.11,21.434524802187,-0.287763698423059,-0.465614735073409,0,0
2.12,21.434524802187,-0.287763698423059,-0.468492372057639,0,0
2.13,21.434524802187,-0.344319672144806,-0.471652788910479,0,0
2.14,21.5310767157104,-0.242849512660806,-0.474588634834507,0,0
2.15,21.5310767157104,-0.287763698423059,-0.477241700889926,0,0
2.16,21.6169006388422,-0.152406677359627,-0.47944255276884,0,0
2.17,21.6383566196252,-0.152406677359627,-0.480966619542436,0,0
2.18,21.7027245619741,-0.152406677359627,-0.482490686316032,0,0
2.19,21.8314604466719,-0.152406677359627,-0.484014753089628,0,0
2.2,21.8958283890209,-0.216932836689902,-0.485861450659876,0,0
2.21,21.9816523121527,-0.152406677359627,-0.487708148230124,0,0
2.22,22.0138362833272,-0.216932836689902,-0.489554845800371,0,0
2.23,22.0674762352846,-0.216932836689902,-0.49172417416727,0,0
2.24,22.1318441776335,-0.287763698423059,-0.494247656842835,0,0
2.25,22.185484129591,-0.242849512660806,-0.496900722898254,0,0
2.26,22.2176681007654,-0.287763698423059,-0.499553788953674,0,0
2.27,22.2176681007654,-0.287763698423059,-0.502431425937904,0,0
2.28,22.2498520719399,-0.152406677359627,-0.504632277816818,0,0
2.29,22.2713080527228,-0.287763698423059,-0.506833129695731,0,0
2.3,22.2713080527228,-0.287763698423059,-0.509710766679962,0,0
2.31,22.3034920238973,0.0245818027557917,-0.511026676158298,0,0
2.32,22.3356759950717,-0.152406677359627,-0.511665800531317,0,0
2.33,22.3356759950717,-0.152406677359627,-0.513189867304914,0,0
2.34,22.3571319758547,-0.242849512660806,-0.515166148255016,0,0
2.35,22.3893159470292,-0.152406677359627,-0.517142429205118,0,0
2.36,22.3571319758547,-0.152406677359627,-0.518666495978714,0,0
2.37,22.3571319758547,-0.152406677359627,-0.52019056275231,0,0
2.38,22.3356759950717,-0.152406677359627,-0.521714629525907,0,0
2.39,22.3356759950717,-0.152406677359627,-0.523238696299503,0,0
2.4,22.3034920238973,-0.242849512660806,-0.525214977249605,0,0
2.41,22.3356759950717,-0.242849512660806,-0.527643472376213,0,0
2.42,22.2498520719399,-0.242849512660806,-0.530071967502821,0,0
2.43,22.2498520719399,0.0245818027557917,-0.531163306052346,0,0
2.44,22.2713080527228,-0.152406677359627,-0.531802430425365,0,0
2.45,22.2498520719399,-0.152406677359627,-0.533326497198962,0,0
2.46,22.2176681007654,0.0245818027557917,-0.533965621571981,0,0
2.47,22.185484129591,-0.242849512660806,-0.535056960121506,0,0
2.48,22.185484129591,-0.152406677359627,-0.537033241071608,0,0
2.49,22.0996602064591,-0.152406677359627,-0.538557307845204,0,0
2.5,22.1318441776335,-0.152406677359627,-0.540081374618801,0,0
2.51,22.1318441776335,-0.152406677359627,-0.541605441392397,0,0
2.52,22.0996602064591,-0.307772604848743,-0.543906337803439,0,0
2.53,22.0674762352846,-0.152406677359627,-0.546207234214481,0,0
2.54,22.0674762352846,-0.152406677359627,-0.547731300988077,0,0
2.55,22.0996602064591,0.0245818027557917,-0.548370425361096,0,0
2.56,22.0674762352846,-0.152406677359627,-0.549009549734115,0,0
2.57,22.0996602064591,-0.242849512660806,-0.550985830684217,0,0
2.58,22.0996602064591,0.111894124921677,-0.551640607622913,0,0
2.59,22.0674762352846,0.111894124921677,-0.550521666373696,0,0
2.6,22.0674762352846,0.111894124921677,-0.54940272512448,0,0
2.61,22.0674762352846,0.111894124921677,-0.548283783875263,0,0
2.62,22.0460202545016,-0.152406677359627,-0.548486346637453,0,0
2.63,22.0674762352846,-0.216932836689902,-0.5503330442077,0,0
2.64,22.0460202545016,-0.152406677359627,-0.552179741777948,0,0
2.65,21.9816523121527,-0.152406677359627,-0.553703808551544,0,0
2.66,21.9816523121527,-0.216932836689902,-0.555550506121792,0,0
2.67,22.0138362833272,-0.152406677359627,-0.55739720369204,0,0
2.68,22.0138362833272,-0.287763698423059,-0.559598055570953,0,0
2.69,22.0138362833272,-0.152406677359627,-0.561798907449866,0,0
2.7,22.0460202545016,-0.242849512660806,-0.563775188399969,0,0
2.71,22.0460202545016,-0.152406677359627,-0.565751469350071,0,0
2.72,22.0460202545016,0.19066293693981,-0.56556018805217,0,0
2.73,22.0460202545016,0.19066293693981,-0.563653558682772,0,0
2.74,22.0460202545016,-0.152406677359627,-0.563462277384871,0,0
2.75,22.0674762352846,0.111894124921677,-0.563664840147061,0,0
2.76,22.0460202545016,-0.152406677359627,-0.56386740290925,0,0
2.77,22.0460202545016,-0.152406677359627,-0.565391469682847,0,0
2.78,22.0460202545016,0.19066293693981,-0.565200188384946,0,0
2.79,22.0460202545016,0.19066293693981,-0.563293559015548,0,0
2.8,22.0460202545016,0.19066293693981,-0.561386929646149,0,0
2.81,22.0138362833272,0.19066293693981,-0.559480300276751,0,0
2.82,22.0460202545016,-0.216932836689902,-0.559611649775502,0,0
2.83,22.0138362833272,-0.152406677359627,-0.56145834734575,0,0
2.84,22.0460202545016,0.024581802755792,-0.562097471718769,0,0
2.85,22.0674762352846,-0.152406677359627,-0.562736596091788,0,0
2.86,22.0996602064591,-0.152406677359627,-0.564260662865384,0,0
2.87,22.1533001584165,0.024581802755792,-0.564899787238403,0,0
2.88,22.1533001584165,-0.242849512660806,-0.565991125787928,0,0
2.89,22.1533001584165,-0.287763698423059,-0.568644191843348,0,0
2.9,22.185484129591,-0.242849512660806,-0.571297257898767,0,0
2.91,22.185484129591,-0.242849512660806,-0.573725753025375,0,0
2.92,22.185484129591,-0.287763698423059,-0.576378819080794,0,0
2.93,22.185484129591,-0.344319672144806,-0.579539235933634,0,0
2.94,22.1533001584165,-0.242849512660806,-0.582475081857662,0,0
2.95,22.1533001584165,-0.287763698423059,-0.585128147913081,0,0
2.96,22.185484129591,-0.152406677359627,-0.587328999791995,0,0
2.97,22.0996602064591,-0.287763698423059,-0.589529851670908,0,0
2.98,22.1318441776335,-0.242849512660806,-0.592182917726327,0,0
2.99,22.0996602064591,-0.242849512660806,-0.594611412852935,0,0
3,22.0996602064591,-0.152406677359627,-0.596587693803038,0,0
3.01,22.0996602064591,-0.242849512660806,-0.59856397475314,0,0
3.02,22.0996602064591,-0.242849512660806,-0.600992469879748,0,0
3.03,22.1533001584165,-0.242849512660806,-0.603420965006356,0,0
3.04,22.1533001584165,-0.287763698423059,-0.606074031061775,0,0
3.05,22.2176681007654,-0.242849512660806,-0.608727097117195,0,0
3.06,22.185484129591,-0.242849512660806,-0.611155592243803,0,0
3.07,22.185484129591,-0.287763698423059,-0.613808658299222,0,0
3.08,22.2176681007654,-0.242849512660806,-0.616461724354641,0,0
3.09,22.2498520719399,-0.242849512660806,-0.618890219481249,0,0
3.1,22.2713080527228,-0.287763698423059,-0.621543285536669,0,0
3.11,22.3356759950717,-0.242849512660806,-0.624196351592088,0,0
