Time [s],Pressure [cmH2O],Flow [L/s],V_tidal [L],Inspiratory Indicies,Weight [kg]
0,4.31265213737696,-0.577100146942143,0,1008,70
0.01,4.63449184912151,-0.522938264783069,-0.00550019205862606,2525,0
0.02,6.24369040784426,-0.326557814882209,-0.00974767245695245,3866,0
0.03,7.31648944699276,-0.287763698423059,-0.0128192800234788,0,0
0.04,7.73488107226068,-0.152406677359627,-0.0150201319023922,0,0
0.05,8.29273657261789,-0.152406677359627,-0.0165441986759885,0,0
0.06,8.71112819788581,-0.152406677359627,-0.0180682654495848,0,0
0.07,9.01151192884739,0.111894124921677,-0.0182708282117745,0,0
0.08,9.31189565980897,0.111894124921677,-0.0171518869625578,0,0
0.09,9.69810331390243,0.19066293693981,-0.0156391016532503,0,0
0.1,9.9341191025151,0.111894124921677,-0.0141263163439429,0,0
0.11,10.2130468526937,0.111894124921677,-0.0130073750947261,0,0
0.12,10.4168786701319,0.111894124921677,-0.0118884338455094,0,0
0.13,10.6743504395276,0.19066293693981,-0.0103756485362019,0,0
0.14,10.8138143146169,0.19066293693981,-0.00846901916680382,0,0
0.15,10.9854621608806,-0.242849512660806,-0.0087299520454088,0,0
0.16,11.1356540263614,-0.242849512660806,-0.0111584471720169,0,0
0.17,11.2429339302763,-0.152406677359627,-0.013134728122119,0,0
0.18,11.3609418245826,-0.242849512660806,-0.0151110090722212,0,0
0.19,11.5647736420208,-0.242849512660806,-0.0175395041988293,0,0
0.2,11.7793334498505,-0.287763698423059,-0.0201925702542486,0,0
0.21,11.9938932576802,-0.287763698423059,-0.0230702072384792,0,0
0.22,12.2299090462929,-0.242849512660806,-0.0257232732938985,0,0
0.23,12.3693729213822,-0.344319672144806,-0.0286591192179266,0,0
0.24,12.6697566523438,-0.152406677359627,-0.0311427509654487,0,0
0.25,12.8199485178246,-0.242849512660806,-0.0331190319155509,0,0
0.26,13.0023243544798,-0.287763698423059,-0.0357720979709702,0,0
0.27,13.2168841623095,-0.216932836689902,-0.038295580646535,0,0
0.28,13.4207159797477,-0.216932836689902,-0.040464909013434,0,0
0.29,13.5065399028796,-0.216932836689902,-0.0426342373803331,0,0
0.3,13.7103717203178,0.111894124921677,-0.0431594309391742,0,0
0.31,13.8927475569731,-0.152406677359627,-0.0433619937013639,0,0
0.32,14.0858513840198,-0.216932836689902,-0.0452086912716116,0,0
0.33,14.2253152591091,-0.216932836689902,-0.0473780196385106,0,0
0.34,14.3969631053729,-0.216932836689902,-0.0495473480054096,0,0
0.35,14.5471549708536,-0.287763698423059,-0.0520708306809744,0,0
0.36,14.66516286516,-0.152406677359627,-0.0542716825598879,0,0
0.37,14.8260827210323,-0.216932836689902,-0.0561183801301355,0,0
0.38,14.9440906153386,-0.287763698423059,-0.0586418628057003,0,0
0.39,15.0942824808194,-0.152406677359627,-0.0608427146846138,0,0
0.4,15.2122903751257,-0.216932836689902,-0.0626894122548614,0,0
0.41,15.2337463559087,-0.216932836689902,-0.0648587406217604,0,0
0.42,15.351754250215,-0.152406677359627,-0.0667054381920081,0,0
0.43,15.4053942021724,-0.216932836689902,-0.0685521357622557,0,0
0.44,15.4697621445214,-0.216932836689902,-0.0707214641291548,0,0
0.45,15.5234020964788,-0.152406677359627,-0.0725681616994024,0,0
0.46,15.5663140580447,-0.152406677359627,-0.0740922284729987,0,0
0.47,15.6843219523511,-0.242849512660806,-0.0760685094231008,0,0
0.48,15.7379619043085,-0.152406677359627,-0.078044790373203,0,0
0.49,15.8130578370489,-0.242849512660806,-0.0800210713233052,0,0
0.5,15.8988817601807,-0.152406677359627,-0.0819973522734073,0,0
0.51,15.9525217121382,-0.242849512660806,-0.0839736332235095,0,0
0.52,16.0383456352701,-0.152406677359627,-0.0859499141736116,0,0
0.53,16.0705296064445,-0.152406677359627,-0.0874739809472079,0,0
0.54,16.1563535295764,-0.242849512660806,-0.0894502618973101,0,0
0.55,16.1885375007508,-0.242849512660806,-0.0918787570239181,0,0
0.56,16.2421774527083,-0.287763698423059,-0.0945318230793375,0,0
0.57,16.3387293662316,-0.242849512660806,-0.0971848891347568,0,0
0.58,16.3709133374061,-0.287763698423059,-0.0998379551901761,0,0
0.59,16.456737260538,-0.287763698423059,-0.102715592174407,0,0
0.6,16.4889212317124,-0.242849512660806,-0.105368658229826,0,0
0.61,16.5211052028869,-0.287763698423059,-0.108021724285245,0,0
0.62,16.5747451548443,-0.216932836689902,-0.11054520696081,0,0
0.63,16.6069291260188,-0.242849512660806,-0.112844118707564,0,0
0.64,16.6283851068017,-0.242849512660806,-0.115272613834172,0,0
0.65,16.6069291260188,-0.242849512660806,-0.11770110896078,0,0
0.66,16.6927530491506,-0.242849512660806,-0.120129604087388,0,0
0.67,16.6605690779762,-0.287763698423059,-0.122782670142807,0,0
0.68,16.6605690779762,-0.242849512660806,-0.125435736198226,0,0
0.69,16.6927530491506,-0.242849512660806,-0.127864231324835,0,0
0.7,16.6605690779762,-0.242849512660806,-0.130292726451443,0,0
0.71,16.6283851068017,-0.152406677359627,-0.132269007401545,0,0
0.72,16.6927530491506,-0.152406677359627,-0.133793074175141,0,0
0.73,16.6927530491506,-0.287763698423059,-0.135993926054054,0,0
0.74,16.7249370203251,-0.152406677359627,-0.138194777932968,0,0
0.75,16.6927530491506,-0.152406677359627,-0.139718844706564,0,0
0.76,16.7249370203251,-0.242849512660806,-0.141695125656666,0,0
0.77,16.7463930011081,-0.152406677359627,-0.143671406606768,0,0
0.78,16.7785769722825,0.111894124921677,-0.143873969368958,0,0
0.79,16.7249370203251,-0.152406677359627,-0.144076532131148,0,0
0.8,16.7249370203251,0.111894124921677,-0.144279094893338,0,0
0.81,16.7463930011081,-0.152406677359627,-0.144481657655527,0,0
0.82,16.7463930011081,-0.152406677359627,-0.146005724429124,0,0
0.83,16.7249370203251,-0.216932836689902,-0.147852421999371,0,0
0.84,16.7249370203251,-0.152406677359627,-0.149699119569619,0,0
0.85,16.6927530491506,-0.152406677359627,-0.151223186343215,0,0
0.86,16.6927530491506,0.19066293693981,-0.151031905045314,0,0
0.87,16.6605690779762,0.111894124921677,-0.149519119736007,0,0
0.88,16.6069291260188,-0.152406677359627,-0.149721682498197,0,0
0.89,16.5747451548443,-0.152406677359627,-0.151245749271793,0,0
0.9,16.5747451548443,-0.152406677359627,-0.152769816045389,0,0
0.91,16.5747451548443,-0.242849512660806,-0.154746096995491,0,0
0.92,16.5425611836699,-0.152406677359627,-0.156722377945593,0,0
0.93,16.4889212317124,0.0245818027557917,-0.157361502318613,0,0
0.94,16.456737260538,0.0245818027557917,-0.157115684291055,0,0
0.95,16.435281279755,-0.152406677359627,-0.157754808664074,0,0
0.96,16.4030973085805,-0.242849512660806,-0.159731089614176,0,0
0.97,16.3709133374061,-0.152406677359627,-0.161707370564278,0,0
0.98,16.3387293662316,0.0245818027557917,-0.162346494937297,0,0
0.99,16.3387293662316,0.0245818027557917,-0.16210067690974,0,0
1,16.3387293662316,-0.152406677359627,-0.162739801282759,0,0
1.01,16.2850894142742,0.111894124921677,-0.162942364044948,0,0
1.02,16.2850894142742,-0.152406677359627,-0.163144926807138,0,0
1.03,16.3172733854487,-0.152406677359627,-0.164668993580734,0,0
1.04,16.2850894142742,-0.152406677359627,-0.166193060354331,0,0
1.05,16.2850894142742,-0.152406677359627,-0.167717127127927,0,0
1.06,16.2850894142742,0.0245818027557917,-0.168356251500946,0,0
1.07,16.2421774527083,-0.152406677359627,-0.168995375873965,0,0
1.08,16.2850894142742,0.0245818027557917,-0.169634500246985,0,0
1.09,16.2850894142742,0.19066293693981,-0.168558276548507,0,0
1.1,16.2850894142742,0.0245818027557917,-0.167482052850029,0,0
1.11,16.2850894142742,-0.152406677359627,-0.168121177223048,0,0
1.12,16.3172733854487,0.0245818027557917,-0.168760301596067,0,0
1.13,16.3387293662316,-0.152406677359627,-0.169399425969086,0,0
1.14,16.3172733854487,0.0245818027557917,-0.170038550342105,0,0
1.15,16.3709133374061,-0.152406677359627,-0.170677674715124,0,0
1.16,16.4030973085805,-0.152406677359627,-0.172201741488721,0,0
1.17,16.4030973085805,-0.152406677359627,-0.173725808262317,0,0
1.18,16.456737260538,-0.242849512660806,-0.175702089212419,0,0
1.19,16.435281279755,-0.287763698423059,-0.178355155267838,0,0
1.2,16.5211052028869,-0.242849512660806,-0.181008221323258,0,0
1.21,16.4889212317124,-0.242849512660806,-0.183436716449866,0,0
1.22,16.5425611836699,-0.152406677359627,-0.185412997399968,0,0
1.23,16.5211052028869,-0.242849512660806,-0.18738927835007,0,0
1.24,16.5425611836699,-0.242849512660806,-0.189817773476678,0,0
1.25,16.5425611836699,-0.242849512660806,-0.192246268603286,0,0
1.26,16.6069291260188,-0.242849512660806,-0.194674763729894,0,0
1.27,16.5425611836699,-0.242849512660806,-0.197103258856502,0,0
1.28,16.6069291260188,-0.152406677359627,-0.199079539806605,0,0
1.29,16.6069291260188,-0.152406677359627,-0.200603606580201,0,0
1.3,16.5747451548443,-0.152406677359627,-0.202127673353797,0,0
1.31,16.5747451548443,-0.242849512660806,-0.204103954303899,0,0
1.32,16.6069291260188,-0.242849512660806,-0.206532449430507,0,0
1.33,16.6069291260188,-0.152406677359627,-0.208508730380609,0,0
1.34,16.5747451548443,-0.287763698423059,-0.210709582259523,0,0
1.35,16.5747451548443,-0.152406677359627,-0.212910434138436,0,0
1.36,16.5425611836699,-0.152406677359627,-0.214434500912033,0,0
1.37,16.5425611836699,-0.152406677359627,-0.215958567685629,0,0
1.38,16.5211052028869,-0.152406677359627,-0.217482634459225,0,0
1.39,16.4889212317124,-0.152406677359627,-0.219006701232821,0,0
1.4,16.4889212317124,-0.242849512660806,-0.220982982182924,0,0
1.41,16.4889212317124,-0.152406677359627,-0.222959263133026,0,0
1.42,16.4889212317124,-0.242849512660806,-0.224935544083128,0,0
1.43,16.435281279755,-0.152406677359627,-0.22691182503323,0,0
1.44,16.435281279755,-0.152406677359627,-0.228435891806826,0,0
1.45,16.435281279755,-0.242849512660806,-0.230412172756928,0,0
1.46,16.3709133374061,-0.242849512660806,-0.232840667883536,0,0
1.47,16.4030973085805,-0.152406677359627,-0.234816948833639,0,0
1.48,16.3709133374061,-0.152406677359627,-0.236341015607235,0,0
1.49,16.3709133374061,-0.152406677359627,-0.237865082380831,0,0
1.5,16.3709133374061,-0.152406677359627,-0.239389149154427,0,0
1.51,16.3709133374061,-0.152406677359627,-0.240913215928024,0,0
1.52,16.3709133374061,-0.152406677359627,-0.24243728270162,0,0
1.53,16.4030973085805,0.111894124921677,-0.24263984546381,0,0
1.54,16.3709133374061,0.111894124921677,-0.241520904214593,0,0
1.55,16.3709133374061,0.111894124921677,-0.240401962965376,0,0
1.56,16.435281279755,0.111894124921677,-0.239283021716159,0,0
1.57,16.4030973085805,0.111894124921677,-0.238164080466943,0,0
1.58,16.3709133374061,0.111894124921677,-0.237045139217726,0,0
1.59,16.4030973085805,-0.152406677359627,-0.237247701979916,0,0
1.6,16.456737260538,-0.152406677359627,-0.238771768753512,0,0
1.61,16.456737260538,-0.152406677359627,-0.240295835527108,0,0
1.62,16.4889212317124,-0.152406677359627,-0.241819902300704,0,0
1.63,16.4889212317124,-0.216932836689902,-0.243666599870952,0,0
1.64,16.4889212317124,-0.152406677359627,-0.2455132974412,0,0
1.65,16.5211052028869,-0.152406677359627,-0.247037364214796,0,0
1.66,16.5211052028869,-0.152406677359627,-0.248561430988392,0,0
1.67,16.5425611836699,-0.242849512660806,-0.250537711938494,0,0
1.68,16.5425611836699,-0.152406677359627,-0.252513992888596,0,0
1.69,16.5425611836699,-0.152406677359627,-0.254038059662193,0,0
1.7,16.6069291260188,0.111894124921677,-0.254240622424383,0,0
1.71,16.5747451548443,0.111894124921677,-0.253121681175166,0,0
1.72,16.5425611836699,-0.152406677359627,-0.253324243937356,0,0
1.73,16.5211052028869,-0.242849512660806,-0.255300524887458,0,0
1.74,16.5425611836699,-0.242849512660806,-0.257729020014066,0,0
1.75,16.4889212317124,-0.242849512660806,-0.260157515140674,0,0
1.76,16.4889212317124,-0.242849512660806,-0.262586010267282,0,0
1.77,16.4889212317124,-0.152406677359627,-0.264562291217384,0,0
1.78,16.435281279755,-0.152406677359627,-0.26608635799098,0,0
1.79,16.435281279755,-0.287763698423059,-0.268287209869894,0,0
1.8,16.435281279755,-0.152406677359627,-0.270488061748807,0,0
1.81,16.4030973085805,-0.152406677359627,-0.272012128522403,0,0
1.82,16.3709133374061,-0.242849512660806,-0.273988409472506,0,0
1.83,16.4030973085805,0.111894124921677,-0.274643186411201,0,0
1.84,16.3709133374061,0.111894124921677,-0.273524245161985,0,0
1.85,16.3387293662316,-0.152406677359627,-0.273726807924174,0,0
1.86,16.3387293662316,-0.152406677359627,-0.275250874697771,0,0
1.87,16.3709133374061,-0.152406677359627,-0.276774941471367,0,0
1.88,16.3709133374061,-0.152406677359627,-0.278299008244963,0,0
1.89,16.435281279755,0.111894124921677,-0.278501571007153,0,0
1.9,16.435281279755,-0.152406677359627,-0.278704133769343,0,0
1.91,16.456737260538,-0.216932836689902,-0.28055083133959,0,0
1.92,16.5211052028869,-0.152406677359627,-0.282397528909838,0,0
1.93,16.5425611836699,-0.152406677359627,-0.283921595683434,0,0
1.94,16.6283851068017,-0.242849512660806,-0.285897876633536,0,0
1.95,16.6605690779762,-0.152406677359627,-0.287874157583639,0,0
1.96,16.7249370203251,-0.242849512660806,-0.289850438533741,0,0
1.97,16.7463930011081,-0.242849512660806,-0.292278933660349,0,0
1.98,16.8429449146314,-0.242849512660806,-0.294707428786957,0,0
1.99,16.9073128569803,-0.242849512660806,-0.297135923913565,0,0
2,17.0038647705037,-0.242849512660806,-0.299564419040173,0,0
2.01,17.12187266481,-0.287763698423059,-0.302217485095592,0,0
2.02,17.2935205110738,-0.287763698423059,-0.305095122079823,0,0
2.03,17.4115284053801,-0.287763698423059,-0.307972759064053,0,0
2.04,17.497352328512,-0.216932836689902,-0.310496241739618,0,0
2.05,17.6153602228183,-0.216932836689902,-0.312665570106517,0,0
2.06,17.7333681171247,-0.216932836689902,-0.314834898473416,0,0
2.07,17.8406480210395,-0.287763698423059,-0.317358381148981,0,0
2.08,17.9264719441714,-0.287763698423059,-0.320236018133212,0,0
2.09,17.9586559153459,-0.287763698423059,-0.323113655117442,0,0
2.1,18.0444798384777,-0.287763698423059,-0.325991292101673,0,0
2.11,18.0981197904352,-0.287763698423059,-0.328868929085903,0,0
2.12,18.2161276847415,-0.287763698423059,-0.331746566070134,0,0
2.13,18.248311655916,-0.287763698423059,-0.334624203054365,0,0
2.14,18.3341355790478,-0.287763698423059,-0.337501840038595,0,0
2.15,18.3341355790478,-0.287763698423059,-0.340379477022826,0,0
2.16,18.3341355790478,-0.242849512660806,-0.343032543078245,0,0
2.17,18.3341355790478,-0.216932836689902,-0.345331454824999,0,0
2.18,18.3663195502223,-0.242849512660806,-0.347630366571752,0,0
2.19,18.4199595021797,-0.326557814882209,-0.350477403209467,0,0
2.2,18.4521434733542,-0.242849512660806,-0.353324439847182,0,0
2.21,18.4199595021797,-0.326557814882209,-0.356171476484898,0,0
2.22,18.4521434733542,-0.287763698423059,-0.359243084051424,0,0
2.23,18.5165114157031,-0.287763698423059,-0.362120721035655,0,0
2.24,18.5486953868775,-0.287763698423059,-0.364998358019885,0,0
2.25,18.602335338835,-0.344319672144806,-0.368158774872724,0,0
2.26,18.6667032811839,-0.377343473451487,-0.371767090600706,0,0
2.27,18.7203432331413,-0.344319672144806,-0.375375406328687,0,0
2.28,18.8168951466647,-0.344319672144806,-0.378818603050135,0,0
2.29,18.8812630890136,-0.377343473451487,-0.382426918778117,0,0
2.3,18.8812630890136,-0.377343473451487,-0.386200353512632,0,0
2.31,18.9670870121455,-0.377343473451487,-0.389973788247147,0,0
2.32,19.1065508872348,-0.344319672144806,-0.393582103975128,0,0
2.33,19.2352867719326,-0.377343473451487,-0.39719041970311,0,0
2.34,19.3854786374134,-0.344319672144806,-0.400798735431091,0,0
2.35,19.5249425125027,-0.344319672144806,-0.404241932152539,0,0
2.36,19.6751343779835,-0.216932836689902,-0.407048194696713,0,0
2.37,19.7287743299409,-0.216932836689902,-0.409217523063612,0,0
2.38,19.8360542338557,-0.287763698423059,-0.411741005739176,0,0
2.39,19.9862460993365,-0.216932836689902,-0.414264488414741,0,0
2.4,20.039886051294,-0.287763698423059,-0.416787971090306,0,0
2.41,20.1257099744258,-0.216932836689902,-0.419311453765871,0,0
2.42,20.2437178687322,-0.216932836689902,-0.42148078213277,0,0
2.43,20.3617257630385,-0.152406677359627,-0.423327479703018,0,0
2.44,20.4475496861704,-0.152406677359627,-0.424851546476614,0,0
2.45,20.5333736093023,-0.216932836689902,-0.426698244046861,0,0
2.46,20.6621094940001,-0.242849512660806,-0.428997155793615,0,0
2.47,20.6942934651745,-0.242849512660806,-0.431425650920223,0,0
2.48,20.7908453786979,-0.287763698423059,-0.434078716975642,0,0
2.49,20.8444853306553,-0.242849512660806,-0.436731783031062,0,0
2.5,20.9303092537872,-0.287763698423059,-0.439384849086481,0,0
2.51,20.9946771961361,-0.287763698423059,-0.442262486070712,0,0
2.52,21.0483171480935,-0.242849512660806,-0.444915552126131,0,0
2.53,21.1126850904425,-0.287763698423059,-0.44756861818155,0,0
2.54,21.1663250423999,-0.242849512660806,-0.45022168423697,0,0
2.55,21.1985090135743,-0.242849512660806,-0.452650179363578,0,0
2.56,21.3272448982722,-0.287763698423059,-0.455303245418997,0,0
2.57,21.3808848502296,-0.216932836689902,-0.457826728094562,0,0
2.58,21.434524802187,-0.152406677359627,-0.459673425664809,0,0
2.59,21.4988927445359,-0.152406677359627,-0.461197492438406,0,0
2.6,21.5525326964933,-0.152406677359627,-0.462721559212002,0,0
2.61,21.5847166676678,-0.152406677359627,-0.464245625985598,0,0
2.62,21.7027245619741,-0.152406677359627,-0.465769692759194,0,0
2.63,21.767092504323,-0.152406677359627,-0.467293759532791,0,0
2.64,21.8314604466719,-0.152406677359627,-0.468817826306387,0,0
2.65,21.9280123601953,-0.152406677359627,-0.470341893079983,0,0
2.66,22.0138362833272,-0.152406677359627,-0.47186595985358,0,0
2.67,22.1318441776335,-0.242849512660806,-0.473842240803682,0,0
2.68,22.2176681007654,-0.287763698423059,-0.476495306859101,0,0
2.69,22.3034920238973,-0.287763698423059,-0.479372943843332,0,0
2.7,22.3571319758547,-0.287763698423059,-0.482250580827562,0,0
2.71,22.5073238413355,-0.242849512660806,-0.484903646882982,0,0
2.72,22.5609637932929,-0.242849512660806,-0.48733214200959,0,0
2.73,22.5931477644674,-0.242849512660806,-0.489760637136198,0,0
2.74,22.7218836491652,-0.287763698423059,-0.492413703191617,0,0
2.75,22.7218836491652,-0.287763698423059,-0.495291340175848,0,0
2.76,22.8184355626886,-0.242849512660806,-0.497944406231267,0,0
2.77,22.9042594858204,-0.242849512660806,-0.500372901357875,0,0
2.78,22.9364434569949,-0.287763698423059,-0.503025967413294,0,0
2.79,23.0222673801268,-0.287763698423059,-0.505903604397525,0,0
2.8,23.1402752744331,-0.242849512660806,-0.508556670452944,0,0
2.81,23.1939152263905,-0.287763698423059,-0.511209736508364,0,0
2.82,23.2904671399139,-0.242849512660806,-0.513862802563783,0,0
2.83,23.3548350822628,-0.242849512660806,-0.516291297690391,0,0
2.84,23.3762910630458,-0.242849512660806,-0.518719792816999,0,0
2.85,23.3548350822628,-0.242849512660806,-0.521148287943607,0,0
2.86,23.4084750342202,-0.242849512660806,-0.523576783070215,0,0
2.87,23.4728429765692,-0.242849512660806,-0.526005278196823,0,0
2.88,23.4728429765692,-0.287763698423059,-0.528658344252243,0,0
2.89,23.5264829285266,-0.287763698423059,-0.531535981236473,0,0
2.9,23.5264829285266,-0.242849512660806,-0.534189047291893,0,0
2.91,23.4942989573521,-0.242849512660806,-0.536617542418501,0,0
2.92,23.4406590053947,-0.242849512660806,-0.539046037545109,0,0
2.93,23.3548350822628,-0.242849512660806,-0.541474532671717,0,0
2.94,23.2582831687394,-0.242849512660806,-0.543903027798325,0,0
2.95,23.1939152263905,-0.242849512660806,-0.546331522924933,0,0
2.96,23.1402752744331,-0.242849512660806,-0.548760018051541,0,0
2.97,23.0544513513012,-0.242849512660806,-0.551188513178149,0,0
2.98,23.0544513513012,0.0245818027557917,-0.552279851727674,0,0
2.99,22.9900834089523,-0.242849512660806,-0.553371190277199,0,0
3,22.9364434569949,-0.152406677359627,-0.555347471227301,0,0
3.01,22.872075514646,-0.152406677359627,-0.556871538000897,0,0
3.02,22.850619533863,-0.242849512660806,-0.558847818951,0,0
3.03,22.8184355626886,-0.152406677359627,-0.560824099901102,0,0
3.04,22.7862515915141,-0.152406677359627,-0.562348166674698,0,0
3.05,22.7647956107311,-0.152406677359627,-0.563872233448294,0,0
3.06,22.7218836491652,-0.152406677359627,-0.565396300221891,0,0
3.07,22.7647956107311,0.111894124921677,-0.56559886298408,0,0
3.08,22.6896996779907,-0.152406677359627,-0.56580142574627,0,0
3.09,22.6467877164248,-0.152406677359627,-0.567325492519866,0,0
3.1,22.6896996779907,-0.242849512660806,-0.569301773469969,0,0
3.11,22.6253317356418,-0.242849512660806,-0.571730268596577,0,0
