Time [s],Pressure [cmH2O],Flow [L/s],V_tidal [L],Inspiratory Indicies,Weight [kg]
0,15.6521379811766,-0.152406677359627,0,36,61
0.01,15.5984980292192,-0.242849512660806,-0.00197628095010217,253,0
0.02,15.4697621445214,-0.242849512660806,-0.00440477607671023,492,0
0.03,15.2981142982576,-0.242849512660806,-0.00683327120331829,721,0
0.04,15.0942824808194,-0.307772604848743,-0.00958638179086603,960,0
0.05,14.9119066441641,-0.307772604848743,-0.0126641078393535,1205,0
0.06,14.6866188459429,-0.242849512660806,-0.0154172184269012,1464,0
0.07,14.5149709996792,-0.242849512660806,-0.0178457135535093,1730,0
0.08,14.289683201458,-0.242849512660806,-0.0202742086801173,1998,0
0.09,13.9678434897135,-0.242849512660806,-0.0227027038067254,2238,0
0.1,13.6781877491434,-0.187466864989695,-0.0248542856949779,2500,0
0.11,13.3885320085733,-0.187466864989695,-0.0267289543448748,2730,0
0.12,13.1203322487861,-0.187466864989695,-0.0286036229947718,2991,0
0.13,12.7877645466501,-0.187466864989695,-0.0304782916446687,3222,0
0.14,12.4659248349056,-0.152406677359627,-0.0321776593564154,3481,0
0.15,12.0475332096376,-0.242849512660806,-0.0341539403065175,3727,0
0.16,11.7256934978931,-0.152406677359627,-0.0361302212566197,3989,0
0.17,11.0391021128381,-0.344319672144806,-0.0386138530041419,4236,0
0.18,10.9318222089232,0.0245818027557917,-0.0402125423510869,0,0
0.19,10.5563425452212,-0.152406677359627,-0.0408516667241061,0,0
0.2,10.2666868046511,-0.152406677359627,-0.0423757334977024,0,0
0.21,10.0950389583874,-0.152406677359627,-0.0438998002712987,0,0
0.22,9.97703106408104,-0.152406677359627,-0.0454238670448949,0,0
0.23,9.83756718899173,-0.152406677359627,-0.0469479338184912,0,0
0.24,9.69810331390243,-0.152406677359627,-0.0484720005920875,0,0
0.25,9.54791144842164,-0.152406677359627,-0.0499960673656838,0,0
0.26,9.290439679026,-0.152406677359627,-0.05152013413928,0,0
0.27,9.04369590002184,-0.242849512660806,-0.0534964150893822,0,0
0.28,8.8613200633666,-0.242849512660806,-0.0559249102159903,0,0
0.29,8.59312030357947,-0.152406677359627,-0.0579011911660924,0,0
0.3,8.36783250535829,-0.242849512660806,-0.0598774721161946,0,0
0.31,8.0030808320478,-0.307772604848743,-0.0626305827037423,0,0
0.32,7.6490571491288,-0.242849512660806,-0.0653836932912901,0,0
0.33,7.23066552386088,-0.307772604848743,-0.0681368038788378,0,0
0.34,6.81227389859297,-0.152406677359627,-0.0704377002898797,0,0
0.35,6.30805835019317,0.111894124921677,0,0,0
0.36,5.7180188786615,0.19066293693981,0.00151278530930743,0,0
0.37,5.06361146478091,0.362878212138203,0.0042804910546975,0,0
0.38,4.40920405090033,0.476454445006785,0.00847715434042245,0,0
0.39,3.71188467545381,0.524092509799345,0.0134798891144531,0,0
0.4,2.99310931922431,0.655424557806768,0.0193774744524837,0,0
0.41,2.41379783808412,0.772273120916351,0.0265159628460993,0,0
0.42,1.75939042420354,0.824510754597369,0.0344998822236678,0,0
0.43,1.35172678932711,0.945677813751311,0.0433508250654112,0,0
0.44,0.868967221710284,1.0473199321272,0.0533158137948038,0,0
0.45,0.611495452314644,1.09188244859648,0.0640118256984222,0,0
0.46,0.493487558008309,1.1503406510121,0.0752229411964651,0,0
0.47,0.203831817438215,1.20101786623828,0.086979733782717,0,0
0.48,0.23601578861267,1.25914108701397,0.0992805285489782,0,0
0.49,0.0643679423489099,1.26856940580216,0.111919081013059,0,0
0.5,0.289655740570095,1.31469716626677,0.124835413873404,0,0
0.51,0.579311481140189,1.33716445877693,0.138094721998622,0,0
0.52,0.847511240927314,1.36363667111433,0.151598727648078,0,0
0.53,0.23601578861267,1.33716445877693,0.165102733297535,0,0
0.54,0.493487558008309,1.34161276826864,0.178496619432762,0,0
0.55,0.847511240927314,1.41930030753051,0.192301184811758,0,0
0.56,0.611495452314644,1.33716445877693,0.206083508643295,0,0
0.57,0.783143298578404,1.3504654309948,0.219521658092154,0,0
0.58,0.815327269752859,1.34161276826864,0.232982049088471,0,0
0.59,0.203831817438215,1.3504654309948,0.246442440084788,0,0
0.6,0.611495452314644,1.32822314747397,0.259835882977132,0,0
0.61,0.868967221710284,1.35926043885729,0.273273300908789,0,0
0.62,1.02988707758256,1.3504654309948,0.286821930258049,0,0
0.63,0.976247125625134,1.29644302548505,0.300056472540448,0,0
0.64,1.35172678932711,1.2918391881978,0.312997883608863,0,0
0.65,1.26590286619523,1.28258193805816,0.325869989240143,0,0
0.66,1.06207104875701,1.26856940580216,0.338625745959444,0,0
0.67,1.6413825298972,1.2918391881978,0.351427788929444,0,0
0.68,1.35172678932711,1.23042273061543,0.36403909852351,0,0
0.69,2.27433396299482,1.21089882952875,0.376245706324231,0,0
0.7,1.60919855872275,1.24486472618953,0.388524524102822,0,0
0.71,2.18851003986294,1.26856940580216,0.401091694762781,0,0
0.72,1.86667032811839,1.22069981391193,0.413538040861351,0,0
0.73,1.89885429929284,1.20101786623828,0.425646629262102,0,0
0.74,1.9310382704673,1.21089882952875,0.437706212740938,0,0
0.75,2.38161386690967,1.18604208379289,0.449690917307546,0,0
0.76,2.70345357865422,1.20101786623828,0.461626217057702,0,0
0.77,2.68199759787125,1.20101786623828,0.473636395720084,0,0
0.78,3.07893324235619,1.09188244859648,0.485100897294258,0,0
0.79,3.45441290605817,1.09732552677786,0.49604693717113,0,0
0.8,3.54023682919005,1.09188244859648,0.506992977048002,0,0
0.81,3.48659687723262,1.00671089647132,0.51748594377334,0,0
0.82,4.34483610855142,0.976671223210643,0.52740285437175,0,0
0.83,4.31265213737696,0.958195485144855,0.537077187913528,0,0
0.84,4.82759567616824,0.89385585308782,0.546337444604691,0,0
0.85,5.35326720535101,0.817252686922141,0.554892987304741,0,0
0.86,5.77165883061892,0.764519288915994,0.562801847183932,0,0
0.87,6.10422653275496,0.724506447382148,0.570246975865422,0,0
0.88,6.54407413880584,0.588361402387474,0.57681131511427,0,0
0.89,6.81227389859297,0.567747372947536,0.582591858990945,0,0
0.9,7.11265762955455,0.500840192573689,0.587934796818552,0,0
0.91,7.47740930286504,0.437333680009823,0.592625666181469,0,0
0.92,7.98162485126483,0.30972973113479,0.596360983237192,0,0
0.93,8.45365642849017,-0.152406677359627,0.597147598506068,0,0
0.94,9.09733585197927,-0.287763698423059,0.594946746627155,0,0
0.95,9.80538321781728,-0.344319672144806,0.591786329774315,0,0
0.96,10.4168786701319,-0.392815640118486,0.588100653212999,0,0
0.97,11.5111336900634,-0.392815640118486,0.584172496811814,0,0
0.98,12.5839327292119,-0.422061828944791,0.580098109466498,0,0
0.99,13.2812521046584,-0.499632233191375,0.575489639155817,0,0
1,13.9678434897135,-0.422061828944791,0.570881168845136,0,0
1.01,14.66516286516,-0.499632233191375,0.566272698534455,0,0
1.02,15.1801064039513,-0.499632233191375,0.561276376202541,0,0
1.03,15.6521379811766,-0.462476245820271,0.556465833807483,0,0
1.04,16.0168896544871,-0.499632233191375,0.551655291412425,0,0
1.05,16.3709133374061,-0.487561625108599,0.546719322120925,0,0
1.06,16.5425611836699,-0.422061828944791,0.542171204850658,0,0
1.07,16.7785769722825,-0.422061828944791,0.53795058656121,0,0
1.08,17.0038647705037,-0.422061828944791,0.533729968271763,0,0
1.09,17.12187266481,-0.422061828944791,0.529509349982315,0,0
1.1,17.2613365398993,-0.392815640118486,0.525434962636998,0,0
1.11,17.3793444342057,-0.392815640118486,0.521506806235813,0,0
1.12,17.497352328512,-0.422061828944791,0.517432418890497,0,0
1.13,17.5509922804694,-0.392815640118486,0.513358031545181,0,0
1.14,17.6475441939928,-0.392815640118486,0.509429875143996,0,0
1.15,17.7011841459502,-0.344319672144806,0.505744198582679,0,0
1.16,17.7548240979077,-0.344319672144806,0.502301001861231,0,0
1.17,17.7548240979077,-0.307772604848743,0.499040540476264,0,0
1.18,17.7548240979077,-0.344319672144806,0.495780079091296,0,0
1.19,17.8084640498651,-0.344319672144806,0.492336882369848,0,0
1.2,17.8084640498651,-0.344319672144806,0.4888936856484,0,0
1.21,17.8406480210395,-0.242849512660806,0.485957839724372,0,0
1.22,17.8406480210395,-0.242849512660806,0.483529344597764,0,0
1.23,17.872831992214,-0.242849512660806,0.481100849471156,0,0
1.24,17.872831992214,-0.242849512660806,0.478672354344548,0,0
1.25,17.894287972997,-0.242849512660806,0.47624385921794,0,0
1.26,17.894287972997,-0.307772604848743,0.473490748630392,0,0
1.27,17.9264719441714,-0.242849512660806,0.470737638042844,0,0
1.28,17.9264719441714,-0.152406677359627,0.468761357092742,0,0
1.29,17.9586559153459,-0.152406677359627,0.467237290319146,0,0
1.3,17.9801118961288,-0.242849512660806,0.465261009369043,0,0
1.31,18.0122958673033,-0.152406677359627,0.463284728418941,0,0
1.32,18.0122958673033,-0.152406677359627,0.461760661645345,0,0
1.33,18.0444798384777,-0.242849512660806,0.459784380695243,0,0
1.34,18.0659358192607,-0.242849512660806,0.457355885568635,0,0
1.35,18.0981197904352,-0.242849512660806,0.454927390442027,0,0
1.36,18.1303037616096,-0.242849512660806,0.452498895315419,0,0
1.37,18.1839437135671,-0.242849512660806,0.450070400188811,0,0
1.38,18.1839437135671,-0.287763698423059,0.447417334133391,0,0
1.39,18.1839437135671,-0.242849512660806,0.444764268077972,0,0
1.4,18.2161276847415,-0.287763698423059,0.442111202022553,0,0
1.41,18.248311655916,-0.242849512660806,0.439458135967133,0,0
1.42,18.248311655916,-0.242849512660806,0.437029640840525,0,0
1.43,18.248311655916,-0.242849512660806,0.434601145713917,0,0
1.44,18.248311655916,-0.242849512660806,0.432172650587309,0,0
1.45,18.248311655916,-0.242849512660806,0.429744155460701,0,0
1.46,18.2161276847415,-0.287763698423059,0.427091089405282,0,0
1.47,18.1624877327841,-0.242849512660806,0.424438023349863,0,0
1.48,18.1624877327841,-0.242849512660806,0.422009528223255,0,0
1.49,18.0981197904352,-0.242849512660806,0.419581033096647,0,0
1.5,18.0444798384777,-0.242849512660806,0.417152537970039,0,0
1.51,18.0444798384777,-0.152406677359627,0.415176257019936,0,0
1.52,17.9801118961288,-0.152406677359627,0.41365219024634,0,0
1.53,17.9586559153459,-0.307772604848743,0.411351293835298,0,0
1.54,17.894287972997,-0.242849512660806,0.408598183247751,0,0
1.55,17.872831992214,-0.307772604848743,0.405845072660203,0,0
1.56,17.8406480210395,-0.344319672144806,0.402584611275235,0,0
1.57,17.8084640498651,-0.307772604848743,0.399324149890267,0,0
1.58,17.7548240979077,-0.242849512660806,0.39657103930272,0,0
1.59,17.7333681171247,-0.307772604848743,0.393817928715172,0,0
1.6,17.7011841459502,-0.307772604848743,0.390740202666684,0,0
1.61,17.6690001747758,-0.307772604848743,0.387662476618197,0,0
1.62,17.6475441939928,-0.307772604848743,0.38458475056971,0,0
1.63,17.6153602228183,0.111894124921677,0.383605358170074,0,0
1.64,17.6153602228183,0.111894124921677,0.384724299419291,0,0
1.65,17.5831762516439,-0.152406677359627,0.384521736657101,0,0
1.66,17.5831762516439,-0.152406677359627,0.382997669883505,0,0
1.67,17.5831762516439,-0.152406677359627,0.381473603109909,0,0
1.68,17.6153602228183,-0.152406677359627,0.379949536336312,0,0
1.69,17.6153602228183,-0.152406677359627,0.378425469562716,0,0
1.7,17.6475441939928,0.111894124921677,0.378222906800526,0,0
1.71,17.6475441939928,-0.152406677359627,0.378020344038337,0,0
1.72,17.6153602228183,-0.152406677359627,0.37649627726474,0,0
1.73,17.6153602228183,-0.152406677359627,0.374972210491144,0,0
1.74,17.6153602228183,-0.307772604848743,0.372671314080102,0,0
1.75,17.6153602228183,-0.242849512660806,0.369918203492554,0,0
1.76,17.6475441939928,-0.307772604848743,0.367165092905007,0,0
1.77,17.6475441939928,-0.242849512660806,0.364411982317459,0,0
1.78,17.6153602228183,-0.242849512660806,0.361983487190851,0,0
1.79,17.6475441939928,-0.307772604848743,0.359230376603303,0,0
1.8,17.6690001747758,-0.307772604848743,0.356152650554816,0,0
1.81,17.6690001747758,-0.242849512660806,0.353399539967268,0,0
1.82,17.6475441939928,-0.242849512660806,0.35097104484066,0,0
1.83,17.6475441939928,-0.242849512660806,0.348542549714052,0,0
1.84,17.6475441939928,-0.187466864989695,0.346390967825799,0,0
1.85,17.6475441939928,-0.187466864989695,0.344516299175902,0,0
1.86,17.6475441939928,-0.242849512660806,0.34236471728765,0,0
1.87,17.5831762516439,-0.242849512660806,0.339936222161042,0,0
1.88,17.5831762516439,-0.242849512660806,0.337507727034434,0,0
1.89,17.5509922804694,-0.242849512660806,0.335079231907826,0,0
1.9,17.5509922804694,-0.242849512660806,0.332650736781218,0,0
1.91,17.5295362996865,-0.242849512660806,0.33022224165461,0,0
1.92,17.497352328512,-0.242849512660806,0.327793746528002,0,0
1.93,17.4437123765546,-0.242849512660806,0.325365251401394,0,0
1.94,17.3793444342057,-0.242849512660806,0.322936756274786,0,0
1.95,17.3793444342057,-0.242849512660806,0.320508261148178,0,0
1.96,17.3257044822483,-0.242849512660806,0.31807976602157,0,0
1.97,17.3257044822483,-0.242849512660806,0.315651270894962,0,0
1.98,17.2613365398993,-0.242849512660806,0.313222775768354,0,0
1.99,17.2076965879419,-0.307772604848743,0.310469665180806,0,0
2,17.1755126167675,-0.187466864989695,0.307993467831614,0,0
2.01,17.0896886936356,-0.307772604848743,0.305517270482421,0,0
2.02,17.0575047224611,-0.242849512660806,0.302764159894874,0,0
2.03,17.0038647705037,-0.242849512660806,0.300335664768266,0,0
2.04,16.9394968281548,-0.307772604848743,0.297582554180718,0,0
2.05,16.9073128569803,-0.242849512660806,0.29482944359317,0,0
2.06,16.8429449146314,-0.242849512660806,0.292400948466562,0,0
2.07,16.7463930011081,-0.307772604848743,0.289647837879014,0,0
2.08,16.7463930011081,-0.152406677359627,0.287346941467973,0,0
2.09,16.7249370203251,-0.242849512660806,0.28537066051787,0,0
2.1,16.6605690779762,-0.242849512660806,0.282942165391262,0,0
2.11,16.6283851068017,-0.242849512660806,0.280513670264654,0,0
2.12,16.6069291260188,-0.152406677359627,0.278537389314552,0,0
2.13,16.6069291260188,-0.152406677359627,0.277013322540956,0,0
2.14,16.6069291260188,-0.242849512660806,0.275037041590854,0,0
2.15,16.6069291260188,-0.242849512660806,0.272608546464246,0,0
2.16,16.5747451548443,-0.242849512660806,0.270180051337638,0,0
2.17,16.6069291260188,-0.242849512660806,0.26775155621103,0,0
2.18,16.5747451548443,-0.242849512660806,0.265323061084422,0,0
2.19,16.5747451548443,-0.242849512660806,0.262894565957814,0,0
2.2,16.5425611836699,-0.242849512660806,0.260466070831206,0,0
2.21,16.5211052028869,-0.152406677359627,0.258489789881103,0,0
2.22,16.5211052028869,-0.242849512660806,0.256513508931001,0,0
2.23,16.5211052028869,-0.242849512660806,0.254085013804393,0,0
2.24,16.5211052028869,-0.242849512660806,0.251656518677785,0,0
2.25,16.5211052028869,-0.242849512660806,0.249228023551177,0,0
2.26,16.4889212317124,-0.307772604848743,0.246474912963629,0,0
2.27,16.456737260538,-0.307772604848743,0.243397186915142,0,0
2.28,16.456737260538,-0.344319672144806,0.240136725530174,0,0
2.29,16.4030973085805,-0.307772604848743,0.236876264145206,0,0
2.3,16.3387293662316,-0.242849512660806,0.234123153557659,0,0
2.31,16.1563535295764,-0.307772604848743,0.231370042970111,0,0
2.32,15.9847056833126,-0.242849512660806,0.228616932382563,0,0
2.33,15.7701458754829,-0.242849512660806,0.226188437255955,0,0
2.34,15.5234020964788,-0.242849512660806,0.223759942129347,0,0
2.35,15.1157384616023,-0.242849512660806,0.221331447002739,0,0
2.36,14.5149709996792,-0.287763698423059,0.21867838094732,0,0
2.37,13.6781877491434,-0.152406677359627,0.216477529068406,0,0
2.38,13.0666922968287,-0.152406677359627,0.21495346229481,0,0
2.39,12.4444688541226,-0.152406677359627,0.213429395521214,0,0
2.4,11.7471494786761,-0.152406677359627,0.211905328747618,0,0
2.41,11.0391021128381,-0.152406677359627,0.210381261974021,0,0
2.42,10.4168786701319,-0.152406677359627,0.208857195200425,0,0
2.43,9.91266312173213,-0.152406677359627,0.207333128426829,0,0
2.44,9.37626360215788,-0.152406677359627,0.205809061653232,0,0
2.45,8.92568800571551,-0.152406677359627,0.204284994879636,0,0
2.46,8.5716643227965,-0.152406677359627,0.20276092810604,0,0
2.47,8.29273657261789,-0.242849512660806,0.200784647155938,0,0
2.48,8.08890475517968,-0.242849512660806,0.19835615202933,0,0
2.49,7.73488107226068,-0.152406677359627,0.196379871079228,0,0
2.5,7.37012939895019,-0.152406677359627,0.194855804305631,0,0
2.51,6.99464973524821,-0.242849512660806,0.192879523355529,0,0
2.52,6.56553011958881,0.111894124921677,0,0,0
2.53,6.19005045588684,0.19066293693981,0.00151278530930743,0,0
2.54,5.83602677296783,0.19066293693981,0.00341941467870553,0,0
2.55,5.58928299396368,0.362878212138203,0.0061871204240956,0,0
2.56,5.23525931104467,0.437333680009823,0.0101881798848357,0,0
2.57,4.97778754164903,0.394350931500288,0.0143466029423863,0,0
2.58,4.63449184912151,0.500840192573689,0.0188225585627562,0,0
2.59,4.51648395481518,0.557154421434099,0.0241125316327951,0,0
2.6,4.29119615659399,0.588361402387474,0.029840110751903,0,0
2.61,4.25901218541954,0.588361402387474,0.0357237247757777,0,0
2.62,4.08736433915578,0.655424557806768,0.0419426545767489,0,0
2.63,3.96935644484944,0.707868301287588,0.0487591188722207,0,0
2.64,3.77625261780272,0.707868301287588,0.0558378018850966,0,0
2.65,3.59387678114747,0.748770781210172,0.0631209972975854,0,0
2.66,3.40077295410074,0.764519288915994,0.0706874476482162,0,0
2.67,3.36858898292629,0.838838509355197,0.0787042366395722,0,0
2.68,3.28276505979441,0.838838509355197,0.0870926217331242,0,0
2.69,3.19694113666253,0.859882628777345,0.0955862274237869,0,0
2.7,3.19694113666253,0.87363046856412,0.104253792910494,0,0
2.71,3.13257319431362,0.859882628777345,0.112921358397202,0,0
2.72,2.99310931922431,0.89385585308782,0.121690050806527,0,0
2.73,2.99310931922431,0.939356427165001,0.130856112207791,0,0
2.74,2.90728539609243,0.926584284847131,0.140185815767852,0,0
2.75,2.90728539609243,0.958195485144855,0.149609714617812,0,0
2.76,2.76782152100313,1.00671089647132,0.159434246525893,0,0
2.77,2.68199759787125,0.958195485144855,0.169258778433974,0,0
2.78,2.56398970356491,0.976671223210643,0.178933111975751,0,0
2.79,2.27433396299482,1.02431192493785,0.188938027716494,0,0
2.8,2.64981362669679,1.02431192493785,0.199181146965872,0,0
2.81,2.38161386690967,1.01847871328006,0.209395100156962,0,0
2.82,2.38161386690967,1.06983323975841,0.219836659922154,0,0
2.83,2.20996602064591,1.09732552677786,0.230672453754836,0,0
2.84,2.24214999182036,1.08091406745518,0.241563651726001,0,0
2.85,2.03831817438215,1.10813147778087,0.252508879452181,0,0
2.86,2.09195812633957,1.09188244859648,0.263508949084068,0,0
2.87,2.00613420320769,1.09732552677786,0.274454988960939,0,0
2.88,1.86667032811839,1.1503406510121,0.285693319849889,0,0
2.89,1.89885429929284,1.11883306725327,0.297039188441216,0,0
2.9,2.03831817438215,1.14514958988146,0.30835910172689,0,0
2.91,2.0705021455566,1.1759522797279,0.319964611074936,0,0
2.92,2.61762965552234,1.10813147778087,0.33138502986248,0,0
2.93,2.7892775017861,1.09188244859648,0.342385099494367,0,0
2.94,2.7892775017861,1.09732552677786,0.353331139371239,0,0
2.95,3.16475716548807,1.09188244859648,0.36427717924811,0,0
2.96,3.5724208003645,1.03587980958237,0.374915990539005,0,0
2.97,3.54023682919005,1.00671089647132,0.385128944069273,0,0
2.98,3.69042869467084,0.976671223210643,0.395045854667683,0,0
2.99,3.74406864662826,0.976671223210643,0.404812566899789,0,0
3,3.74406864662826,0.939356427165001,0.414392705151667,0,0
3.01,4.31265213737696,0.926584284847131,0.423722408711728,0,0
3.02,4.51648395481518,0.880423889821731,0.432757449585072,0,0
3.03,4.54866792598963,0.817252686922141,0.441245832468792,0,0
3.04,4.97778754164903,0.838838509355197,0.449526288450179,0,0
3.05,5.06361146478091,0.724506447382148,0.457343013233865,0,0
3.06,5.47127509965734,0.682150600287053,0.464376298472211,0,0
3.07,5.80384280179338,0.682150600287053,0.471197804475082,0,0
3.08,6.19005045588684,0.617994522884422,0.477698530090939,0,0
3.09,6.54407413880584,0.524092509799345,0.483408965254358,0,0
3.1,7.02683370642267,0.46378099141886,0.488348332760449,0,0
3.11,7.34867341816722,0.437333680009823,0.492853906117592,0,0
3.12,7.61687317795434,0.346070175946087,0.496770925397372,0,0
3.13,7.98162485126483,0.245325122751503,0.49972790189086,0,0
3.14,8.23909662066047,0.19066293693981,0.501907842189316,0,0
3.15,8.53948035162205,-0.152406677359627,0.502099123487217,0,0
3.16,8.99005594806442,-0.287763698423059,0.499898271608304,0,0
3.17,9.40844757333233,-0.344319672144806,0.496737854755465,0,0
3.18,10.0306710160385,-0.287763698423059,0.493577437902625,0,0
