Time [s],Pressure [cmH2O],Flow [L/s],V_tidal [L],Inspiratory Indicies,Weight [kg]
0,11.3609418245826,-0.152406677359627,0,362,60
0.01,11.5647736420208,-0.242849512660806,-0.00197628095010217,1053,0
0.02,11.7471494786761,-0.307772604848743,-0.00472939153764991,1702,0
0.03,11.8544293825909,-0.152406677359627,-0.00703028794869176,2351,0
0.04,11.9402533057228,-0.152406677359627,-0.00855435472228803,2948,0
0.05,11.9938932576802,-0.242849512660806,-0.0105306356723902,3634,0
0.06,12.0475332096376,-0.152406677359627,-0.0125069166224924,4049,0
0.07,12.0475332096376,-0.152406677359627,-0.0140309833960886,0,0
0.08,12.0475332096376,-0.152406677359627,-0.0155550501696849,0,0
0.09,12.0260772288547,0.0245818027557917,-0.0161941745427041,0,0
0.1,11.9617092865058,0.111894124921677,-0.0155117949043168,0,0
0.11,11.9402533057228,0.0245818027557917,-0.0148294152659294,0,0
0.12,11.811517421025,-0.152406677359627,-0.0154685396389486,0,0
0.13,11.7256934978931,0.19066293693981,-0.0152772583410477,0,0
0.14,11.5111336900634,0.0245818027557917,-0.0142010346425697,0,0
0.15,11.3394858437996,0.19066293693981,-0.0131248109440917,0,0
0.16,11.1356540263614,0.0245818027557917,-0.0120485872456137,0,0
0.17,10.9318222089232,-0.152406677359627,-0.0126877116186328,0,0
0.18,10.706534410702,-0.152406677359627,-0.0142117783922291,0,0
0.19,10.5027025932638,-0.152406677359627,-0.0157358451658254,0,0
0.2,10.352510727783,0.0245818027557917,-0.0163749695388446,0,0
0.21,10.2345028334767,-0.152406677359627,-0.0170140939118637,0,0
0.22,10.1164949391703,0.0245818027557917,-0.0176532182848829,0,0
0.23,10.0306710160385,0.0245818027557917,-0.017407400257325,0,0
0.24,9.97703106408104,-0.152406677359627,-0.0180465246303442,0,0
0.25,9.9341191025151,-0.152406677359627,-0.0195705914039405,0,0
0.26,9.97703106408104,0.19066293693981,-0.0193793101060395,0,0
0.27,9.9341191025151,-0.242849512660806,-0.0196402429846445,0,0
0.28,9.97703106408104,-0.152406677359627,-0.0216165239347467,0,0
0.29,10.0306710160385,0.0245818027557917,-0.0222556483077659,0,0
0.3,10.0306710160385,-0.152406677359627,-0.022894772680785,0,0
0.31,10.0950389583874,0.111894124921677,-0.0230973354429748,0,0
0.32,10.1808628815193,-0.242849512660806,-0.0237521123816704,0,0
0.33,10.1808628815193,-0.242849512660806,-0.0261806075082785,0,0
0.34,10.2130468526937,-0.152406677359627,-0.0281568884583807,0,0
0.35,10.2988707758256,0.111894124921677,-0.0283594512205704,0,0
0.36,10.352510727783,0.111894124921677,-0.0272405099713537,0,0
0.37,10.3846946989575,-0.242849512660806,-0.0278952869100493,0,0
0.38,10.4705186220893,-0.152406677359627,-0.0298715678601515,0,0
0.39,10.5563425452212,0.111894124921677,-0.0300741306223412,0,0
0.4,10.5885265163957,-0.152406677359627,-0.030276693384531,0,0
0.41,10.6743504395276,-0.152406677359627,-0.0318007601581273,0,0
0.42,10.7601743626594,-0.152406677359627,-0.0333248269317235,0,0
0.43,10.8138143146169,-0.242849512660806,-0.0353011078818257,0,0
0.44,10.8996382377487,-0.152406677359627,-0.0372773888319279,0,0
0.45,10.9318222089232,0.19066293693981,-0.037086107534027,0,0
0.46,10.9854621608806,0.245325122751503,-0.0349061672355704,0,0
0.47,10.9854621608806,0.19066293693981,-0.0327262269371138,0,0
0.48,11.0176461320551,0.111894124921677,-0.0312134416278064,0,0
0.49,11.0712860840125,-0.152406677359627,-0.0314160043899961,0,0
0.5,11.1356540263614,0.111894124921677,-0.0316185671521859,0,0
0.51,11.1356540263614,0.19066293693981,-0.0301057818428785,0,0
0.52,11.1571100071444,0.19066293693981,-0.0281991524734804,0,0
0.53,11.2214779494933,0.111894124921677,-0.0266863671641729,0,0
0.54,11.2751179014507,0.19066293693981,-0.0251735818548655,0,0
0.55,11.3073018726252,0.111894124921677,-0.0236607965455581,0,0
0.56,11.3073018726252,-0.152406677359627,-0.0238633593077478,0,0
0.57,11.3394858437996,-0.152406677359627,-0.0253874260813441,0,0
0.58,11.3609418245826,-0.152406677359627,-0.0269114928549404,0,0
0.59,11.3609418245826,-0.152406677359627,-0.0284355596285366,0,0
0.6,11.3931257957571,-0.152406677359627,-0.0299596264021329,0,0
0.61,11.3609418245826,-0.152406677359627,-0.0314836931757292,0,0
0.62,11.3609418245826,0.111894124921677,-0.0316862559379189,0,0
0.63,11.3394858437996,-0.152406677359627,-0.0318888187001087,0,0
0.64,11.3394858437996,0.111894124921677,-0.0320913814622984,0,0
0.65,11.2751179014507,-0.152406677359627,-0.0322939442244882,0,0
0.66,11.2429339302763,-0.242849512660806,-0.0342702251745904,0,0
0.67,11.2214779494933,-0.242849512660806,-0.0366987203011984,0,0
0.68,11.1356540263614,-0.152406677359627,-0.0386750012513006,0,0
0.69,11.1571100071444,-0.242849512660806,-0.0406512822014028,0,0
0.7,11.103470055187,-0.152406677359627,-0.0426275631515049,0,0
0.71,11.0712860840125,-0.242849512660806,-0.0446038441016071,0,0
0.72,11.0176461320551,-0.187466864989695,-0.0467554259898596,0,0
0.73,10.9532781897062,-0.187466864989695,-0.0486300946397565,0,0
0.74,10.8674542665743,0.0245818027557917,-0.0494445199509261,0,0
0.75,10.7923583338339,0.0245818027557917,-0.0491987019233682,0,0
0.76,10.706534410702,0.0245818027557917,-0.0489528838958102,0,0
0.77,10.5885265163957,0.19066293693981,-0.0478766601973322,0,0
0.78,10.4705186220893,0.0245818027557917,-0.0468004364988542,0,0
0.79,10.3203267566086,0.0245818027557917,-0.0465546184712963,0,0
0.8,10.1808628815193,-0.152406677359627,-0.0471937428443155,0,0
0.81,10.0306710160385,0.268515262170148,-0.0466131999202629,0,0
0.82,9.83756718899173,0.0245818027557917,-0.0451477145956332,0,0
0.83,9.63373537155352,0.111894124921677,-0.0444653349572458,0,0
0.84,9.4299035541153,0.0245818027557917,-0.0437829553188585,0,0
0.85,9.09733585197927,0.0245818027557917,-0.0435371372913006,0,0
0.86,8.74331216906026,-0.152406677359627,-0.0441762616643198,0,0
0.87,8.27128059183493,0.0245818027557917,-0.0448153860373389,0,0
0.88,7.91725690891592,0.111894124921677,-0.0441330063989516,0,0
0.89,7.6490571491288,0.111894124921677,-0.0430140651497348,0,0
0.9,7.47740930286504,0.111894124921677,-0.0418951239005181,0,0
0.91,7.34867341816722,0.0245818027557917,-0.0412127442621307,0,0
0.92,7.34867341816722,0.19066293693981,-0.0401365205636527,0,0
0.93,7.23066552386088,0.19066293693981,-0.0382298911942546,0,0
0.94,7.16629758151197,0.245325122751503,-0.0360499508957981,0,0
0.95,7.16629758151197,0.19066293693981,-0.0338700105973415,0,0
0.96,7.23066552386088,0.111894124921677,-0.032357225288034,0,0
0.97,7.31648944699276,0.19066293693981,-0.0308444399787266,0,0
0.98,7.37012939895019,0.19066293693981,-0.0289378106093285,0,0
0.99,7.47740930286504,0.19066293693981,-0.0270311812399304,0,0
1,7.56323322599691,0.19066293693981,-0.0251245518705323,0,0
1.01,7.61687317795434,0.268515262170148,-0.0228286608749825,0,0
1.02,7.7885210242181,0.19066293693981,-0.0205327698794327,0,0
1.03,7.76706504343513,0.0245818027557917,-0.0194565461809547,0,0
1.04,7.82070499539256,0.19066293693981,-0.0183803224824767,0,0
1.05,7.94944088009037,-0.152406677359627,-0.0181890411845758,0,0
1.06,7.91725690891592,-0.152406677359627,-0.0197131079581721,0,0
1.07,7.94944088009037,0.111894124921677,-0.0199156707203618,0,0
1.08,7.94944088009037,0.19066293693981,-0.0184028854110544,0,0
1.09,7.94944088009037,-0.152406677359627,-0.0182116041131535,0,0
1.1,7.91725690891592,-0.152406677359627,-0.0197356708867498,0,0
1.11,7.94944088009037,-0.152406677359627,-0.021259737660346,0,0
1.12,7.94944088009037,0.111894124921677,-0.0214623004225358,0,0
1.13,7.98162485126483,0.0245818027557917,-0.0207799207841484,0,0
1.14,7.98162485126483,0.0245818027557917,-0.0205341027565905,0,0
1.15,7.98162485126483,0.0245818027557917,-0.0202882847290326,0,0
1.16,8.0030808320478,0.19066293693981,-0.0192120610305546,0,0
1.17,8.0030808320478,0.268515262170148,-0.0169161700350048,0,0
1.18,8.0030808320478,0.268515262170148,-0.0142310174133033,0,0
1.19,8.20691264948601,-0.242849512660806,-0.0141026886657566,0,0
1.2,8.17472867831156,0.245325122751503,-0.0140903106153031,0,0
1.21,8.17472867831156,0.19066293693981,-0.0119103703168466,0,0
1.22,8.29273657261789,0.0245818027557917,-0.0108341466183686,0,0
1.23,8.29273657261789,-0.152406677359627,-0.0114732709913877,0,0
1.24,8.38928848614126,-0.152406677359627,-0.012997337764984,0,0
1.25,8.42147245731571,-0.152406677359627,-0.0145214045385803,0,0
1.26,8.45365642849017,0.111894124921677,-0.01472396730077,0,0
1.27,8.48584039966462,0.111894124921677,-0.0136050260515533,0,0
1.28,8.50729638044759,-0.152406677359627,-0.013807588813743,0,0
1.29,8.48584039966462,-0.242849512660806,-0.0157838697638452,0,0
1.3,8.50729638044759,-0.152406677359627,-0.0177601507139474,0,0
1.31,8.53948035162205,-0.307772604848743,-0.0200610471249892,0,0
1.32,8.53948035162205,-0.187466864989695,-0.0225372444741814,0,0
1.33,8.5716643227965,0.0245818027557917,-0.0233516697853509,0,0
1.34,8.62530427475393,-0.242849512660806,-0.024443008334876,0,0
1.35,8.68967221710284,-0.152406677359627,-0.0264192892849782,0,0
1.36,8.79695212101769,-0.242849512660806,-0.0283955702350803,0,0
1.37,8.89350403454105,-0.152406677359627,-0.0303718511851825,0,0
1.38,8.95787197688996,-0.242849512660806,-0.0323481321352847,0,0
1.39,9.0758798711963,-0.152406677359627,-0.0343244130853868,0,0
1.4,9.17243178471966,0.111894124921677,-0.0345269758475766,0,0
1.41,9.22607173667709,-0.152406677359627,-0.0347295386097663,0,0
1.42,9.31189565980897,-0.152406677359627,-0.0362536053833626,0,0
1.43,9.37626360215788,-0.152406677359627,-0.0377776721569589,0,0
1.44,9.4299035541153,0.111894124921677,-0.0379802349191486,0,0
1.45,9.51572747724718,-0.152406677359627,-0.0381827976813384,0,0
1.46,9.60155140037906,0.111894124921677,-0.0383853604435281,0,0
1.47,9.69810331390243,-0.152406677359627,-0.0385879232057179,0,0
1.48,9.78392723703431,-0.242849512660806,-0.0405642041558201,0,0
1.49,9.91266312173213,-0.152406677359627,-0.0425404851059222,0,0
1.5,10.0306710160385,0.111894124921677,-0.042743047868112,0,0
1.51,10.1486789103448,-0.152406677359627,-0.0429456106303017,0,0
1.52,10.2988707758256,-0.152406677359627,-0.044469677403898,0,0
1.53,10.4383346509149,-0.152406677359627,-0.0459937441774943,0,0
1.54,10.5885265163957,-0.152406677359627,-0.0475178109510906,0,0
1.55,10.706534410702,-0.152406677359627,-0.0490418777246868,0,0
1.56,10.8674542665743,-0.152406677359627,-0.0505659444982831,0,0
1.57,10.9854621608806,-0.242849512660806,-0.0525422254483853,0,0
1.58,11.1356540263614,-0.152406677359627,-0.0545185063984874,0,0
1.59,11.2429339302763,-0.242849512660806,-0.0564947873485896,0,0
1.6,11.3609418245826,-0.242849512660806,-0.0589232824751977,0,0
1.61,11.5647736420208,-0.242849512660806,-0.0613517776018057,0,0
1.62,11.6935095267186,-0.242849512660806,-0.0637802727284138,0,0
1.63,11.811517421025,-0.152406677359627,-0.0657565536785159,0,0
1.64,11.9402533057228,-0.242849512660806,-0.0677328346286181,0,0
1.65,12.0475332096376,-0.152406677359627,-0.0697091155787203,0,0
1.66,12.144085123161,-0.242849512660806,-0.0716853965288224,0,0
1.67,12.1977250751184,-0.242849512660806,-0.0741138916554305,0,0
1.68,12.2513650270759,-0.242849512660806,-0.0765423867820385,0,0
1.69,12.3479169405992,-0.242849512660806,-0.0789708819086466,0,0
1.7,12.3479169405992,-0.152406677359627,-0.0809471628587488,0,0
1.71,12.4015568925566,-0.152406677359627,-0.082471229632345,0,0
1.72,12.4015568925566,-0.152406677359627,-0.0839952964059413,0,0
1.73,12.4015568925566,-0.187466864989695,-0.0856946641176879,0,0
1.74,12.3693729213822,-0.242849512660806,-0.0878462460059404,0,0
1.75,12.3693729213822,-0.187466864989695,-0.089997827894193,0,0
1.76,12.2835489982503,-0.152406677359627,-0.0916971956059396,0,0
1.77,12.2513650270759,-0.242849512660806,-0.0936734765560417,0,0
1.78,12.2513650270759,-0.152406677359627,-0.0956497575061439,0,0
1.79,12.1977250751184,-0.242849512660806,-0.0976260384562461,0,0
1.8,12.144085123161,-0.187466864989695,-0.0997776203444986,0,0
1.81,12.1119011519865,-0.187466864989695,-0.101652288994396,0,0
1.82,12.0797171808121,-0.242849512660806,-0.103803870882648,0,0
1.83,12.0260772288547,-0.242849512660806,-0.106232366009256,0,0
1.84,12.0260772288547,-0.242849512660806,-0.108660861135864,0,0
1.85,11.9938932576802,0.0245818027557917,-0.109752199685389,0,0
1.86,11.9938932576802,0.0245818027557917,-0.109506381657831,0,0
1.87,12.0260772288547,-0.187466864989695,-0.110320806969001,0,0
1.88,11.9938932576802,-0.187466864989695,-0.112195475618898,0,0
1.89,11.9617092865058,0.0245818027557917,-0.113009900930067,0,0
1.9,11.9080693345483,0.19066293693981,-0.111933677231589,0,0
1.91,11.8758853633739,0.0245818027557917,-0.110857453533111,0,0
1.92,11.811517421025,-0.187466864989695,-0.111671878844281,0,0
1.93,11.7256934978931,0.0245818027557917,-0.11248630415545,0,0
1.94,11.6613255555442,0.19066293693981,-0.111410080456972,0,0
1.95,11.5969576131953,-0.242849512660806,-0.111671013335577,0,0
1.96,11.5647736420208,-0.187466864989695,-0.11382259522383,0,0
1.97,11.5111336900634,-0.152406677359627,-0.115521962935576,0,0
1.98,11.4789497188889,-0.242849512660806,-0.117498243885679,0,0
1.99,11.4253097669315,0.0245818027557917,-0.118589582435204,0,0
2,11.4253097669315,-0.152406677359627,-0.119228706808223,0,0
2.01,11.4467657477145,0.0245818027557917,-0.119867831181242,0,0
2.02,11.4467657477145,-0.152406677359627,-0.120506955554261,0,0
2.03,11.4467657477145,-0.242849512660806,-0.122483236504363,0,0
2.04,11.5111336900634,-0.242849512660806,-0.124911731630971,0,0
2.05,11.5647736420208,-0.242849512660806,-0.127340226757579,0,0
2.06,11.6291415843697,0.0245818027557917,-0.128431565307104,0,0
2.07,11.7256934978931,0.0245818027557917,-0.128185747279547,0,0
2.08,11.7793334498505,-0.187466864989695,-0.129000172590716,0,0
2.09,11.8758853633739,0.0245818027557917,-0.129814597901886,0,0
2.1,11.9080693345483,-0.152406677359627,-0.130453722274905,0,0
2.11,11.9617092865058,-0.152406677359627,-0.131977789048501,0,0
2.12,12.0260772288547,-0.152406677359627,-0.133501855822097,0,0
2.13,12.0475332096376,0.0245818027557917,-0.134140980195116,0,0
2.14,12.144085123161,-0.242849512660806,-0.135232318744642,0,0
2.15,12.2299090462929,-0.187466864989695,-0.137383900632894,0,0
2.16,12.2513650270759,-0.242849512660806,-0.139535482521147,0,0
2.17,12.3157329694248,-0.242849512660806,-0.141963977647755,0,0
2.18,12.3479169405992,-0.242849512660806,-0.144392472774363,0,0
2.19,12.3693729213822,-0.242849512660806,-0.146820967900971,0,0
2.2,12.4015568925566,-0.242849512660806,-0.149249463027579,0,0
2.21,12.4015568925566,-0.242849512660806,-0.151677958154187,0,0
2.22,12.4015568925566,-0.152406677359627,-0.153654239104289,0,0
2.23,12.4015568925566,0.0245818027557917,-0.154293363477308,0,0
2.24,12.4015568925566,0.111894124921677,-0.153610983838921,0,0
2.25,12.4444688541226,-0.152406677359627,-0.153813546601111,0,0
2.26,12.4659248349056,-0.152406677359627,-0.155337613374707,0,0
2.27,12.49810880608,-0.242849512660806,-0.157313894324809,0,0
2.28,12.49810880608,0.111894124921677,-0.157968671263505,0,0
2.29,12.49810880608,0.111894124921677,-0.156849730014288,0,0
2.3,12.49810880608,-0.152406677359627,-0.157052292776478,0,0
2.31,12.5302927772545,0.111894124921677,-0.157254855538667,0,0
2.32,12.5302927772545,0.19066293693981,-0.15574207022936,0,0
2.33,12.49810880608,-0.242849512660806,-0.156003003107965,0,0
2.34,12.5624767484289,-0.152406677359627,-0.157979284058067,0,0
2.35,12.5302927772545,-0.152406677359627,-0.159503350831663,0,0
2.36,12.5624767484289,-0.242849512660806,-0.161479631781766,0,0
2.37,12.5624767484289,-0.242849512660806,-0.163908126908374,0,0
2.38,12.5839327292119,0.0245818027557917,-0.164999465457899,0,0
2.39,12.5839327292119,-0.242849512660806,-0.166090804007424,0,0
2.4,12.5839327292119,-0.242849512660806,-0.168519299134032,0,0
2.41,12.5839327292119,-0.242849512660806,-0.17094779426064,0,0
2.42,12.5624767484289,-0.242849512660806,-0.173376289387248,0,0
2.43,12.5302927772545,-0.187466864989695,-0.1755278712755,0,0
2.44,12.49810880608,0.111894124921677,-0.175905734975841,0,0
2.45,12.4659248349056,0.19066293693981,-0.174392949666533,0,0
2.46,12.4015568925566,0.0245818027557917,-0.173316725968055,0,0
2.47,12.3693729213822,0.19066293693981,-0.172240502269577,0,0
2.48,12.4015568925566,-0.152406677359627,-0.172049220971676,0,0
2.49,12.4659248349056,0.19066293693981,-0.171857939673775,0,0
2.5,12.5302927772545,0.268515262170148,-0.169562048678225,0,0
2.51,12.5839327292119,-0.152406677359627,-0.168981505754173,0,0
2.52,12.7019406235182,0.19066293693981,-0.168790224456272,0,0
2.53,12.8843164601735,0.111894124921677,-0.167277439146964,0,0
2.54,13.0023243544798,0.111894124921677,-0.166158497897748,0,0
2.55,13.2168841623095,-0.242849512660806,-0.166813274836443,0,0
2.56,13.3027080854414,-0.152406677359627,-0.168789555786546,0,0
2.57,13.5065399028796,-0.307772604848743,-0.171090452197587,0,0
2.58,13.6781877491434,-0.287763698423059,-0.174068133713946,0,0
2.59,13.9678434897135,-0.344319672144806,-0.177228550566786,0,0
2.6,14.1394913359772,-0.344319672144806,-0.180671747288234,0,0
2.61,14.3755071245899,-0.344319672144806,-0.184114944009682,0,0
2.62,14.5149709996792,-0.287763698423059,-0.187275360862521,0,0
2.63,14.6007949228111,-0.344319672144806,-0.19043577771536,0,0
2.64,14.6866188459429,-0.287763698423059,-0.1935961945682,0,0
2.65,14.66516286516,-0.216932836689902,-0.196119677243765,0,0
2.66,14.7509867882919,-0.152406677359627,-0.197966374814012,0,0
2.67,14.7509867882919,-0.152406677359627,-0.199490441587609,0,0
2.68,14.8260827210323,0.111894124921677,-0.199693004349798,0,0
2.69,14.8260827210323,-0.152406677359627,-0.199895567111988,0,0
2.7,14.8582666922067,-0.152406677359627,-0.201419633885584,0,0
2.71,14.8582666922067,0.0245818027557917,-0.202058758258603,0,0
2.72,14.8260827210323,0.111894124921677,-0.201376378620216,0,0
2.73,14.7509867882919,-0.152406677359627,-0.201578941382406,0,0
2.74,14.7831707594663,-0.242849512660806,-0.203555222332508,0,0
2.75,14.7509867882919,-0.152406677359627,-0.20553150328261,0,0
2.76,14.7509867882919,-0.242849512660806,-0.207507784232712,0,0
2.77,14.7509867882919,-0.152406677359627,-0.209484065182814,0,0
2.78,14.7831707594663,-0.242849512660806,-0.211460346132917,0,0
2.79,14.7831707594663,0.111894124921677,-0.212115123071612,0,0
2.8,14.7831707594663,0.111894124921677,-0.210996181822396,0,0
2.81,14.8260827210323,-0.152406677359627,-0.211198744584585,0,0
2.82,14.8260827210323,0.111894124921677,-0.211401307346775,0,0
2.83,14.8260827210323,0.111894124921677,-0.210282366097558,0,0
2.84,14.8904506633812,0.111894124921677,-0.209163424848341,0,0
2.85,14.8904506633812,-0.152406677359627,-0.209365987610531,0,0
2.86,14.8582666922067,0.111894124921677,-0.209568550372721,0,0
2.87,14.8904506633812,0.111894124921677,-0.208449609123504,0,0
2.88,14.976274586513,0.19066293693981,-0.206936823814197,0,0
2.89,14.976274586513,0.19066293693981,-0.205030194444799,0,0
2.9,14.976274586513,-0.152406677359627,-0.204838913146898,0,0
2.91,15.0084585576875,0.111894124921677,-0.205041475909088,0,0
2.92,14.976274586513,0.19066293693981,-0.20352869059978,0,0
2.93,14.976274586513,0.19066293693981,-0.201622061230382,0,0
2.94,15.0084585576875,0.19066293693981,-0.199715431860984,0,0
2.95,15.0299145384705,-0.152406677359627,-0.199524150563083,0,0
2.96,15.0620985096449,0.19066293693981,-0.199332869265182,0,0
2.97,15.0942824808194,0.19066293693981,-0.197426239895784,0,0
2.98,15.0942824808194,0.111894124921677,-0.195913454586477,0,0
2.99,15.1157384616023,-0.152406677359627,-0.196116017348666,0,0
3,15.1479224327768,0.111894124921677,-0.196318580110856,0,0
3.01,15.1479224327768,-0.152406677359627,-0.196521142873046,0,0
3.02,15.1801064039513,0.111894124921677,-0.196723705635236,0,0
3.03,15.1479224327768,-0.152406677359627,-0.196926268397425,0,0
3.04,15.1801064039513,0.111894124921677,-0.197128831159615,0,0
3.05,15.1801064039513,-0.242849512660806,-0.197783608098311,0,0
3.06,15.1801064039513,0.111894124921677,-0.198438385037006,0,0
3.07,15.2122903751257,-0.242849512660806,-0.199093161975702,0,0
3.08,15.2122903751257,-0.307772604848743,-0.20184627256325,0,0
3.09,15.2122903751257,-0.152406677359627,-0.204147168974292,0,0
3.1,15.2122903751257,-0.242849512660806,-0.206123449924394,0,0
