Time [s],Pressure [cmH2O],Flow [L/s],V_tidal [L],Inspiratory Indicies,Weight [kg]
0,9.40844757333233,-0.152406677359627,0,185,61
0.01,8.5716643227965,-0.242849512660806,-0.00197628095010217,450,0
0.02,7.82070499539256,-0.152406677359627,-0.00395256190020433,721,0
0.03,7.144841600729,-0.242849512660806,-0.0059288428503065,983,0
0.04,6.60844208115475,-0.242849512660806,-0.00835733797691456,1207,0
0.05,6.10422653275496,-0.152406677359627,-0.0103336189270167,1469,0
0.06,5.52491505161477,-0.152406677359627,-0.011857685700613,1712,0
0.07,5.00997151282349,-0.152406677359627,-0.0133817524742093,1941,0
0.08,4.4306600316833,-0.152406677359627,-0.0149058192478056,2220,0
0.09,3.79770859858569,-0.152406677359627,-0.0164298860214018,2460,0
0.1,3.40077295410074,-0.152406677359627,-0.0179539527949981,2727,0
0.11,2.96092534804986,-0.152406677359627,-0.0194780195685944,2960,0
0.12,2.58544568434788,0.111894124921677,-0.0196805823307841,3154,0
0.13,2.29578994377779,0.111894124921677,-0.0185616410815674,3413,0
0.14,2.00613420320769,0.268515262170148,-0.0166595941461082,3673,0
0.15,1.6413825298972,0.362878212138203,-0.0135026267745665,3918,0
0.16,1.40536674128453,0.394350931500288,-0.00971648105637402,4160,0
0.17,1.14789497188889,0.394350931500288,-0.00577297174137114,0,0
0.18,0.976247125625134,0.437333680009823,-0.00161454868382058,0,0
0.19,0.815327269752859,0.500840192573689,0.00307632067909698,0,0
0.2,0.697319375446524,0.535340068548058,0.00825722198470572,0,0
0.21,0.643679423489099,0.535340068548058,0.0136106226701863,0,0
0.22,0.557855500357219,0.557154421434099,0.0190730951200971,0,0
0.23,0.525671529182764,0.617994522884422,0.0249488398416897,0,0
0.24,0.461303586833854,0.608277239546148,0.0310801986538425,0,0
0.25,0.32183971174455,0.655424557806768,0.0373987076406071,0,0
0.26,0.439847606050884,0.636984529361327,0.0438607530764476,0,0
0.27,0.611495452314644,0.655424557806768,0.0503227985122881,0,0
0.28,0.493487558008309,0.724506447382148,0.0572224535382326,0,0
0.29,0.461303586833854,0.748770781210172,0.0645888396811942,0,0
0.3,0.461303586833854,0.655424557806768,0.0716098163762789,0,0
0.31,0.439847606050884,0.707868301287588,0.0784262806717507,0,0
0.32,0.461303586833854,0.664452692929647,0.0852878856428369,0,0
0.33,0.32183971174455,0.682150600287053,0.0920209021089204,0,0
0.34,0.375479663701974,0.707868301287588,0.0989709966167936,0,0
0.35,0.525671529182764,0.707868301287588,0.106049679629669,0,0
0.36,0.289655740570095,0.740770985277385,0.113292876062494,0,0
0.37,0.525671529182764,0.724506447382148,0.120619263225792,0,0
0.38,0.525671529182764,0.740770985277385,0.12794565038909,0,0
0.39,0.525671529182764,0.740770985277385,0.135353360241864,0,0
0.4,0.493487558008309,0.724506447382148,0.142679747405161,0,0
0.41,0.579311481140189,0.724506447382148,0.149924811878983,0,0
0.42,0.643679423489099,0.682150600287053,0.156958097117329,0,0
0.43,0.643679423489099,0.724506447382148,0.163991382355675,0,0
0.44,0.847511240927314,0.707868301287588,0.171153256099023,0,0
0.45,0.868967221710284,0.724506447382148,0.178315129842372,0,0
0.46,0.933335164059194,0.682150600287053,0.185348415080718,0,0
0.47,0.976247125625134,0.699400816272409,0.192256172163515,0,0
0.48,1.16935095267186,0.682150600287053,0.199163929246313,0,0
0.49,1.31954281815265,0.664452692929647,0.205896945712396,0,0
0.5,1.43755071245899,0.655424557806768,0.212496331966078,0,0
0.51,1.55555860676532,0.617994522884422,0.218863427369534,0,0
0.52,1.75939042420354,0.617994522884422,0.225043372598378,0,0
0.53,1.75939042420354,0.557154421434099,0.230919117319971,0,0
0.54,1.86667032811839,0.557154421434099,0.236490661534312,0,0
0.55,1.81303037616096,0.557154421434099,0.242062205748653,0,0
0.56,1.84521434733542,0.524092509799345,0.24746844040482,0,0
0.57,1.9310382704673,0.535340068548058,0.252765603296557,0,0
0.58,2.32797391495224,0.500840192573689,0.257946504602166,0,0
0.59,2.53180573239046,0.476454445006785,0.262832977790068,0,0
0.6,2.99310931922431,0.394350931500288,0.267187004672604,0,0
0.61,3.2183971174455,0.30972973113479,0.270707407985779,0,0
0.62,3.40077295410074,0.362878212138203,0.274070447702144,0,0
0.63,3.48659687723262,0.30972973113479,0.277433487418509,0,0
0.64,3.48659687723262,0.19066293693981,0.279935450758882,0,0
0.65,3.50805285801559,0.19066293693981,0.28184208012828,0,0
0.66,3.5724208003645,0.19066293693981,0.283748709497678,0,0
0.67,3.62606075232193,0.19066293693981,0.285655338867076,0,0
0.68,3.74406864662826,0.19066293693981,0.287561968236475,0,0
0.69,3.96935644484944,0.0245818027557917,0.288638191934953,0,0
0.7,4.1410042911132,-0.152406677359627,0.287999067561933,0,0
0.71,4.34483610855142,-0.152406677359627,0.286475000788337,0,0
0.72,4.54866792598963,-0.152406677359627,0.284950934014741,0,0
0.73,4.72031577225339,-0.242849512660806,0.282974653064639,0,0
0.74,5.18161935908725,0.245325122751503,0.282987031115092,0,0
0.75,5.43909112848289,-0.152406677359627,0.283451623342052,0,0
0.76,5.77165883061892,0.0245818027557917,0.282812498969032,0,0
0.77,6.10422653275496,-0.242849512660806,0.281721160419507,0,0
0.78,6.51189016763139,-0.242849512660806,0.279292665292899,0,0
0.79,7.05901767759712,-0.242849512660806,0.276864170166291,0,0
0.8,7.53104925482246,-0.242849512660806,0.274435675039683,0,0
0.81,8.08890475517968,-0.242849512660806,0.272007179913075,0,0
0.82,8.62530427475393,-0.307772604848743,0.269254069325527,0,0
0.83,9.0758798711963,-0.242849512660806,0.26650095873798,0,0
0.84,9.49427149646421,-0.307772604848743,0.263747848150432,0,0
0.85,9.80538321781728,-0.242849512660806,0.260994737562884,0,0
0.86,10.1808628815193,-0.287763698423059,0.258341671507465,0,0
0.87,10.5027025932638,-0.242849512660806,0.255688605452046,0,0
0.88,10.8138143146169,-0.344319672144806,0.252752759528018,0,0
0.89,11.103470055187,-0.287763698423059,0.249592342675178,0,0
0.9,11.4789497188889,-0.287763698423059,0.246714705690948,0,0
0.91,11.8544293825909,-0.287763698423059,0.243837068706717,0,0
0.92,12.165541103944,-0.287763698423059,0.240959431722486,0,0
0.93,12.4659248349056,-0.287763698423059,0.238081794738256,0,0
0.94,12.7555805754756,-0.344319672144806,0.234921377885417,0,0
0.95,13.0023243544798,-0.344319672144806,0.231478181163969,0,0
0.96,13.3027080854414,-0.287763698423059,0.228317764311129,0,0
0.97,13.5709078452285,-0.287763698423059,0.225440127326899,0,0
0.98,13.7961956434497,-0.287763698423059,0.222562490342668,0,0
0.99,14.0214834416709,-0.287763698423059,0.219684853358437,0,0
1,14.1931312879346,-0.242849512660806,0.217031787303018,0,0
1.01,14.3969631053729,-0.344319672144806,0.21409594137899,0,0
1.02,14.5793389420281,-0.242849512660806,0.211160095454962,0,0
1.03,14.7188028171174,-0.242849512660806,0.208731600328354,0,0
1.04,14.8904506633812,-0.287763698423059,0.206078534272935,0,0
1.05,15.0620985096449,-0.287763698423059,0.203200897288704,0,0
1.06,15.1801064039513,-0.344319672144806,0.200040480435865,0,0
1.07,15.2981142982576,-0.287763698423059,0.196880063583025,0,0
1.08,15.4697621445214,-0.152406677359627,0.194679211704112,0,0
1.09,15.5984980292192,-0.242849512660806,0.19270293075401,0,0
1.1,15.6843219523511,-0.242849512660806,0.190274435627402,0,0
1.11,15.8130578370489,-0.152406677359627,0.1882981546773,0,0
1.12,15.8988817601807,0.111894124921677,0.18809559191511,0,0
1.13,16.0383456352701,0.111894124921677,0.189214533164327,0,0
1.14,16.1241695584019,-0.152406677359627,0.189011970402137,0,0
1.15,16.1885375007508,-0.152406677359627,0.187487903628541,0,0
1.16,16.2850894142742,-0.152406677359627,0.185963836854944,0,0
1.17,16.3387293662316,0.111894124921677,0.185761274092755,0,0
1.18,16.435281279755,-0.152406677359627,0.185558711330565,0,0
1.19,16.4889212317124,-0.152406677359627,0.184034644556969,0,0
1.2,16.5747451548443,-0.216932836689902,0.182187946986721,0,0
1.21,16.6283851068017,-0.216932836689902,0.180018618619822,0,0
1.22,16.7463930011081,-0.242849512660806,0.177719706873068,0,0
1.23,16.7785769722825,-0.242849512660806,0.17529121174646,0,0
1.24,16.8751288858059,-0.287763698423059,0.172638145691041,0,0
1.25,16.9716807993292,-0.307772604848743,0.169660464174682,0,0
1.26,17.0360487416782,-0.242849512660806,0.166907353587134,0,0
1.27,17.0575047224611,-0.242849512660806,0.164478858460526,0,0
1.28,17.0896886936356,-0.242849512660806,0.162050363333918,0,0
1.29,17.0896886936356,-0.242849512660806,0.15962186820731,0,0
1.3,17.1755126167675,-0.242849512660806,0.157193373080702,0,0
1.31,17.2398805591164,-0.152406677359627,0.1552170921306,0,0
1.32,17.2613365398993,-0.242849512660806,0.153240811180498,0,0
1.33,17.2935205110738,-0.242849512660806,0.15081231605389,0,0
1.34,17.3471604630312,-0.287763698423059,0.14815924999847,0,0
1.35,17.3793444342057,-0.242849512660806,0.145506183943051,0,0
1.36,17.4437123765546,-0.287763698423059,0.142853117887632,0,0
1.37,17.5295362996865,-0.242849512660806,0.140200051832212,0,0
1.38,17.5831762516439,-0.287763698423059,0.137546985776793,0,0
1.39,17.6153602228183,-0.307772604848743,0.134569304260434,0,0
1.4,17.6475441939928,-0.287763698423059,0.131591622744075,0,0
1.41,17.7011841459502,-0.287763698423059,0.128713985759844,0,0
1.42,17.8084640498651,-0.307772604848743,0.125736304243485,0,0
1.43,17.872831992214,-0.152406677359627,0.123435407832444,0,0
1.44,17.894287972997,-0.287763698423059,0.12123455595353,0,0
1.45,17.9586559153459,-0.242849512660806,0.118581489898111,0,0
1.46,17.9801118961288,-0.242849512660806,0.116152994771503,0,0
1.47,18.0444798384777,-0.242849512660806,0.113724499644895,0,0
1.48,18.1303037616096,-0.242849512660806,0.111296004518287,0,0
1.49,18.1624877327841,-0.242849512660806,0.108867509391679,0,0
1.5,18.2161276847415,-0.307772604848743,0.106114398804131,0,0
1.51,18.2161276847415,-0.242849512660806,0.103361288216583,0,0
1.52,18.2161276847415,-0.307772604848743,0.100608177629035,0,0
1.53,18.2161276847415,-0.152406677359627,0.0983072812179936,0,0
1.54,18.1624877327841,-0.152406677359627,0.0967832144443973,0,0
1.55,18.1624877327841,-0.307772604848743,0.0944823180333554,0,0
1.56,18.1303037616096,-0.242849512660806,0.0917292074458077,0,0
1.57,18.0659358192607,-0.242849512660806,0.0893007123191996,0,0
1.58,18.0444798384777,-0.242849512660806,0.0868722171925916,0,0
1.59,18.0122958673033,-0.152406677359627,0.0848959362424894,0,0
1.6,17.9801118961288,-0.242849512660806,0.0829196552923872,0,0
1.61,17.9801118961288,-0.152406677359627,0.0809433743422851,0,0
1.62,17.9801118961288,-0.242849512660806,0.0789670933921829,0,0
1.63,17.9801118961288,-0.242849512660806,0.0765385982655749,0,0
1.64,17.9586559153459,-0.152406677359627,0.0745623173154727,0,0
1.65,17.9586559153459,-0.152406677359627,0.0730382505418764,0,0
1.66,17.9586559153459,-0.242849512660806,0.0710619695917743,0,0
1.67,17.9586559153459,-0.152406677359627,0.0690856886416721,0,0
1.68,17.9264719441714,-0.242849512660806,0.06710940769157,0,0
1.69,17.9264719441714,-0.242849512660806,0.0646809125649619,0,0
1.7,17.9264719441714,-0.152406677359627,0.0627046316148597,0,0
1.71,17.894287972997,-0.152406677359627,0.0611805648412635,0,0
1.72,17.894287972997,-0.242849512660806,0.0592042838911613,0,0
1.73,17.9264719441714,-0.242849512660806,0.0567757887645532,0,0
1.74,17.894287972997,-0.152406677359627,0.0547995078144511,0,0
1.75,17.8084640498651,-0.152406677359627,0.0532754410408548,0,0
1.76,17.8084640498651,-0.152406677359627,0.0517513742672585,0,0
1.77,17.7333681171247,-0.242849512660806,0.0497750933171563,0,0
1.78,17.7333681171247,-0.242849512660806,0.0473465981905483,0,0
1.79,17.7011841459502,-0.242849512660806,0.0449181030639402,0,0
1.8,17.6690001747758,-0.242849512660806,0.0424896079373322,0,0
1.81,17.6475441939928,-0.152406677359627,0.04051332698723,0,0
1.82,17.5831762516439,-0.152406677359627,0.0389892602136337,0,0
1.83,17.5509922804694,-0.152406677359627,0.0374651934400374,0,0
1.84,17.4651683573376,0.0245818027557917,0,0,0
1.85,17.3471604630312,0.111894124921677,0.000682379638387341,0,0
1.86,17.2398805591164,0.111894124921677,0.00180132088760411,0,0
1.87,17.0896886936356,0.19066293693981,0.00331410619691154,0,0
1.88,16.8429449146314,0.19066293693981,0.00522073556630964,0,0
1.89,16.5211052028869,0.19066293693981,0.00712736493570774,0,0
1.9,15.9310657313552,0.328403009295123,0.00972269466688241,0,0
1.91,15.0942824808194,0.111894124921677,0.0119241803379664,0,0
1.92,14.1073073648028,0.111894124921677,0.0130431215871832,0,0
1.93,13.0881482776117,0.111894124921677,0.0141620628363999,0,0
1.94,12.144085123161,0.111894124921677,0.0152810040856167,0,0
1.95,11.2751179014507,-0.152406677359627,0.015078441323427,0,0
1.96,10.5563425452212,-0.152406677359627,0.0135543745498307,0,0
1.97,9.75174326585985,-0.152406677359627,0.0120303077762344,0,0
1.98,8.99005594806442,-0.152406677359627,0.0105062410026381,0,0
1.99,8.20691264948601,-0.242849512660806,0.00852996005253596,0,0
2,7.53104925482246,-0.152406677359627,0.0065536791024338,0,0
2.01,6.84445786976742,-0.152406677359627,0.00502961232883752,0,0
2.02,6.27587437901872,-0.152406677359627,0.00350554555524125,0,0
2.03,5.7180188786615,-0.152406677359627,0.00198147878164497,0,0
2.04,5.2138033302617,-0.152406677359627,0.000457412008048699,0,0
2.05,4.51648395481518,0.0245818027557917,-0.00018171236497048,0,0
2.06,3.87280453132608,-0.152406677359627,-0.000820836737989659,0,0
2.07,3.28276505979441,-0.152406677359627,-0.00234490351158593,0,0
2.08,2.73563754982867,0.111894124921677,-0.00254746627377569,0,0
2.09,2.20996602064591,0.111894124921677,-0.00142852502455892,0,0
2.1,1.69502248185463,0.268515262170148,0.000473521910900202,0,0
2.11,1.20153492384632,0.362878212138203,0.00363048928244196,0,0
2.12,0.761687317795434,0.437333680009823,0.00763154874318209,0,0
2.13,0.375479663701974,0.535340068548058,0.0124949174859715,0,0
2.14,0.17164784626376,0.608277239546148,0.0182130040264425,0,0
2.15,-0.0429119615659399,0.636984529361327,0.0244393128709799,0,0
2.16,-0.396935644484945,0.724506447382148,0.0312467677546973,0,0
2.17,-0.429119615659399,0.682150600287053,0.0382800529930433,0,0
2.18,-0.750959327403949,0.748770781210172,0.0454346599005294,0,0
2.19,-0.836783250535829,0.748770781210172,0.0529223677126311,0,0
2.2,-0.804599279361374,0.824510754597369,0.0607887753916688,0,0
2.21,-0.718775356229494,0.824510754597369,0.0690338829376425,0,0
2.22,-0.750959327403949,0.89385585308782,0.0776257159760685,0,0
2.23,-0.568583490748704,0.932992211698968,0.0867599563000024,0,0
2.24,-0.514943538791279,0.89385585308782,0.0958941966239363,0,0
2.25,-0.429119615659399,0.824510754597369,0.104486029662362,0,0
2.26,-0.36475167331049,0.913633611791479,0.113176751494307,0,0
2.27,-0.27892775017861,0.958195485144855,0.122535896978988,0,0
2.28,-0.19310382704673,0.859882628777345,0.131626287548599,0,0
2.29,-0.34329569252752,0.87363046856412,0.140293853035307,0,0
2.3,0.032183971174455,0.880423889821731,0.149064124827236,0,0
2.31,-0.0750959327403949,0.893855853087819,0.157935523541784,0,0
2.32,-0.10727990391485,0.932992211698968,0.167069763865717,0,0
2.33,0.354023682919005,0.838838509355197,0.175928917470988,0,0
2.34,0.0858239231318799,0.913633611791479,0.184691278076722,0,0
2.35,0.32183971174455,0.859882628777345,0.193558859279566,0,0
2.36,0.289655740570095,0.845911387169195,0.202087829359298,0,0
2.37,0.665135404272069,0.787551797420593,0.210255145282247,0,0
2.38,0.847511240927314,0.764519288915994,0.21801550071393,0,0
2.39,0.868967221710284,0.764519288915994,0.22566069360309,0,0
2.4,0.783143298578404,0.787551797420593,0.233421049034773,0,0
2.41,1.02988707758256,0.682150600287053,0.240769561023311,0,0
2.42,1.11571100071444,0.740770985277385,0.247884168951134,0,0
2.43,1.16935095267186,0.699400816272409,0.255085027958883,0,0
2.44,1.26590286619523,0.664452692929647,0.261904295504893,0,0
2.45,1.2873588469782,0.682150600287053,0.268637311970976,0,0
2.46,1.26590286619523,0.636984529361327,0.275232987619218,0,0
2.47,1.2873588469782,0.636984529361327,0.281602832912831,0,0
2.48,1.31954281815265,0.636984529361327,0.287972678206445,0,0
2.49,1.31954281815265,0.617994522884422,0.294247573467673,0,0
2.5,1.37318277011008,0.588361402387474,0.300279353094033,0,0
2.51,1.52337463559087,0.655424557806768,0.306498282895004,0,0
2.52,1.55555860676532,0.636984529361327,0.312960328330845,0,0
2.53,1.55555860676532,0.608277239546148,0.319186637175382,0,0
2.54,1.60919855872275,0.588361402387474,0.32516983038505,0,0
2.55,1.60919855872275,0.588361402387474,0.331053444408925,0,0
2.56,1.75939042420354,0.608277239546148,0.337036637618593,0,0
2.57,1.75939042420354,0.578146270120367,0.342968755166925,0,0
2.58,1.89885429929284,0.578146270120367,0.348750217868129,0,0
2.59,1.89885429929284,0.557154421434099,0.354426721325901,0,0
2.6,2.03831817438215,0.588361402387474,0.360154300445009,0,0
2.61,2.0705021455566,0.46378099141886,0.365415012414041,0,0
2.62,2.18851003986294,0.46378099141886,0.37005282232823,0,0
2.63,2.20996602064591,0.46378099141886,0.374690632242418,0,0
2.64,2.29578994377779,0.476454445006785,0.379391809424546,0,0
2.65,2.3601578861267,0.476454445006785,0.384156353874614,0,0
2.66,2.56398970356491,0.46378099141886,0.388857531056742,0,0
2.67,2.58544568434788,0.394350931500288,0.393148190671338,0,0
2.68,2.68199759787125,0.346070175946087,0.39685029620857,0,0
2.69,2.82146147296055,0.394350931500288,0.400552401745802,0,0
2.7,2.90728539609243,0.362878212138203,0.404338547463994,0,0
2.71,3.01456530000728,0.362878212138203,0.407967329585376,0,0
2.72,3.04674927118174,0.362878212138203,0.411596111706758,0,0
2.73,3.16475716548807,0.268515262170148,0.4147530790783,0,0
2.74,3.28276505979441,0.268515262170148,0.417438231700002,0,0
2.75,3.54023682919005,0.19066293693981,0.419734122695551,0,0
2.76,3.87280453132608,0.111894124921677,0.421246908004859,0,0
2.77,4.20537223346211,-0.242849512660806,0.420592131066163,0,0
2.78,4.58085189716409,-0.242849512660806,0.418163635939555,0,0
2.79,4.91341959930012,-0.242849512660806,0.415735140812947,0,0
2.8,5.06361146478091,-0.242849512660806,0.413306645686339,0,0
2.81,5.47127509965734,0.557154421434099,0.414878170230206,0,0
2.82,5.67510691709556,-0.242849512660806,0.416449694774072,0,0
2.83,5.8574827537508,-0.242849512660806,0.414021199647464,0,0
2.84,6.19005045588684,-0.242849512660806,0.411592704520856,0,0
2.85,6.51189016763139,-0.152406677359627,0.409616423570754,0,0
2.86,7.05901767759712,-0.152406677359627,0.408092356797158,0,0
2.87,7.67051312991177,-0.242849512660806,0.406116075847055,0,0
2.88,8.38928848614126,-0.287763698423059,0.403463009791636,0,0
2.89,9.04369590002184,-0.287763698423059,0.400585372807405,0,0
2.9,9.54791144842164,-0.242849512660806,0.397932306751986,0,0
2.91,10.0306710160385,-0.287763698423059,0.395279240696567,0,0
2.92,10.352510727783,-0.344319672144806,0.392118823843728,0,0
2.93,10.8138143146169,-0.287763698423059,0.388958406990888,0,0
2.94,11.2429339302763,-0.287763698423059,0.386080770006658,0,0
2.95,11.7256934978931,-0.344319672144806,0.382920353153818,0,0
2.96,12.165541103944,-0.344319672144806,0.37947715643237,0,0
2.97,12.6483006715608,-0.344319672144806,0.376033959710922,0,0
2.98,12.8843164601735,-0.344319672144806,0.372590762989474,0,0
2.99,13.2812521046584,-0.287763698423059,0.369430346136635,0,0
3,13.6245477971859,-0.287763698423059,0.366552709152404,0,0
3.01,13.9678434897135,-0.344319672144806,0.363392292299565,0,0
3.02,14.289683201458,-0.344319672144806,0.359949095578117,0,0
3.03,14.5793389420281,-0.344319672144806,0.356505898856669,0,0
3.04,14.9440906153386,-0.287763698423059,0.35334548200383,0,0
3.05,15.1801064039513,-0.287763698423059,0.350467845019599,0,0
3.06,15.3839382213895,-0.287763698423059,0.347590208035368,0,0
3.07,15.5984980292192,-0.287763698423059,0.344712571051138,0,0
3.08,15.7701458754829,-0.287763698423059,0.341834934066907,0,0
3.09,15.9310657313552,-0.287763698423059,0.338957297082677,0,0
3.1,16.1241695584019,-0.344319672144806,0.335796880229837,0,0
3.11,16.2207214719253,-0.392815640118486,0.332111203668521,0,0
3.12,16.435281279755,-0.344319672144806,0.328425527107204,0,0
3.13,16.5747451548443,-0.344319672144806,0.324982330385756,0,0
3.14,16.7249370203251,-0.344319672144806,0.321539133664308,0,0
3.15,16.8429449146314,-0.344319672144806,0.31809593694286,0,0
