Time [s],Pressure [cmH2O],Flow [L/s],V_tidal [L],Inspiratory Indicies,Weight [kg]
0,1.75939042420354,-0.242849512660806,0,646,74
0.01,1.98467822242472,-0.152406677359627,-0.00197628095010217,1692,0
0.02,2.27433396299482,-0.152406677359627,-0.00350034772369844,2656,0
0.03,2.53180573239046,-0.152406677359627,-0.00502441449729472,3398,0
0.04,2.76782152100313,-0.287763698423059,-0.00722526637620815,4266,0
0.05,2.90728539609243,-0.216932836689902,-0.00974874905177295,0,0
0.06,3.13257319431362,-0.216932836689902,-0.011918077418672,0,0
0.07,3.25058108861995,-0.216932836689902,-0.014087405785571,0,0
0.08,3.40077295410074,-0.326557814882209,-0.0168048590434316,0,0
0.09,3.54023682919005,-0.326557814882209,-0.0200704371922537,0,0
0.1,3.69042869467084,-0.422061828944791,-0.0238135354113887,0,0
0.11,3.96935644484944,-0.422061828944791,-0.0280341537008366,0,0
0.12,4.17318826228766,-0.449408775818573,-0.0323915067246534,0,0
0.13,4.46284400285775,-0.487561625108599,-0.0370763587292892,0,0
0.14,5.12797940712982,-0.377343473451487,-0.0414008842220897,0,0
0.15,5.80384280179338,-0.242849512660806,-0.0445018491526511,0,0
0.16,6.22223442706129,-0.242849512660806,-0.0469303442792592,0,0
0.17,6.60844208115475,-0.287763698423059,-0.0495834103346785,0,0
0.18,7.11265762955455,-0.344319672144806,-0.0527438271875178,0,0
0.19,7.58468920677988,-0.344319672144806,-0.0561870239089659,0,0
0.2,8.23909662066047,-0.287763698423059,-0.0593474407618052,0,0
0.21,8.71112819788581,-0.242849512660806,-0.0620005068172245,0,0
0.22,9.12951982315372,-0.242849512660806,-0.0644290019438326,0,0
0.23,9.49427149646421,-0.344319672144806,-0.0673648478678606,0,0
0.24,9.9341191025151,-0.287763698423059,-0.0705252647207,0,0
0.25,10.2130468526937,-0.287763698423059,-0.0734029017049306,0,0
0.26,10.4168786701319,-0.242849512660806,-0.0760559677603499,0,0
0.27,10.6743504395276,-0.242849512660806,-0.0784844628869579,0,0
0.28,10.7923583338339,-0.242849512660806,-0.080912958013566,0,0
0.29,10.8996382377487,-0.242849512660806,-0.0833414531401741,0,0
0.3,10.9318222089232,-0.242849512660806,-0.0857699482667821,0,0
0.31,10.9318222089232,-0.242849512660806,-0.0881984433933902,0,0
0.32,10.8996382377487,-0.287763698423059,-0.0908515094488095,0,0
0.33,10.8996382377487,-0.242849512660806,-0.0935045755042288,0,0
0.34,10.8996382377487,-0.242849512660806,-0.0959330706308369,0,0
0.35,10.8996382377487,0.0245818027557917,-0.097024409180362,0,0
0.36,10.9532781897062,-0.152406677359627,-0.0976635335533811,0,0
0.37,11.0176461320551,-0.152406677359627,-0.0991876003269774,0,0
0.38,11.1571100071444,0.111894124921677,-0.0993901630891672,0,0
0.39,11.3073018726252,-0.152406677359627,-0.0995927258513569,0,0
0.4,11.4253097669315,-0.242849512660806,-0.101569006801459,0,0
0.41,11.5647736420208,-0.152406677359627,-0.103545287751561,0,0
0.42,11.6935095267186,-0.216932836689902,-0.105391985321809,0,0
0.43,11.7471494786761,-0.216932836689902,-0.107561313688708,0,0
0.44,11.8544293825909,-0.216932836689902,-0.109730642055607,0,0
0.45,11.9938932576802,-0.152406677359627,-0.111577339625855,0,0
0.46,12.0260772288547,-0.152406677359627,-0.113101406399451,0,0
0.47,12.1977250751184,-0.344319672144806,-0.115585038146973,0,0
0.48,12.3479169405992,-0.152406677359627,-0.118068669894495,0,0
0.49,12.5302927772545,-0.242849512660806,-0.120044950844597,0,0
0.5,12.6697566523438,-0.307772604848743,-0.122798061432145,0,0
0.51,12.7555805754756,-0.307772604848743,-0.125875787480633,0,0
0.52,12.9165004313479,-0.242849512660806,-0.12862889806818,0,0
0.53,12.9701403833053,-0.152406677359627,-0.130605179018282,0,0
0.54,13.0023243544798,0.0245818027557917,-0.131244303391302,0,0
0.55,13.0345083256543,-0.152406677359627,-0.131883427764321,0,0
0.56,13.0023243544798,-0.152406677359627,-0.133407494537917,0,0
0.57,13.0345083256543,-0.152406677359627,-0.134931561311513,0,0
0.58,13.0345083256543,-0.307772604848743,-0.137232457722555,0,0
0.59,13.0666922968287,-0.242849512660806,-0.139985568310103,0,0
0.6,13.0666922968287,-0.242849512660806,-0.142414063436711,0,0
0.61,13.1525162199606,-0.242849512660806,-0.144842558563319,0,0
0.62,13.249068133484,-0.242849512660806,-0.147271053689927,0,0
0.63,13.2168841623095,-0.307772604848743,-0.150024164277475,0,0
0.64,13.2168841623095,-0.242849512660806,-0.152777274865023,0,0
0.65,13.2168841623095,-0.242849512660806,-0.155205769991631,0,0
0.66,13.1525162199606,-0.242849512660806,-0.157634265118239,0,0
0.67,13.1525162199606,-0.242849512660806,-0.160062760244847,0,0
0.68,13.0881482776117,-0.287763698423059,-0.162715826300266,0,0
0.69,13.0881482776117,-0.152406677359627,-0.164916678179179,0,0
0.7,13.0345083256543,-0.242849512660806,-0.166892959129282,0,0
0.71,12.9701403833053,-0.242849512660806,-0.16932145425589,0,0
0.72,12.9701403833053,-0.242849512660806,-0.171749949382498,0,0
0.73,12.9165004313479,-0.187466864989695,-0.17390153127075,0,0
0.74,12.8843164601735,-0.242849512660806,-0.176053113159003,0,0
0.75,12.8843164601735,-0.242849512660806,-0.178481608285611,0,0
0.76,12.9701403833053,-0.287763698423059,-0.18113467434103,0,0
0.77,13.0023243544798,-0.287763698423059,-0.184012311325261,0,0
0.78,13.0881482776117,0.111894124921677,-0.184891659192768,0,0
0.79,13.1739722007436,-0.152406677359627,-0.185094221954957,0,0
0.8,13.249068133484,-0.152406677359627,-0.186618288728554,0,0
0.81,13.249068133484,-0.152406677359627,-0.18814235550215,0,0
0.82,13.249068133484,0.111894124921677,-0.18834491826434,0,0
0.83,13.3027080854414,0.111894124921677,-0.187225977015123,0,0
0.84,13.3348920566158,0.111894124921677,-0.186107035765906,0,0
0.85,13.3885320085733,-0.216932836689902,-0.186632229324747,0,0
0.86,13.4528999509222,-0.152406677359627,-0.188478926894995,0,0
0.87,13.5065399028796,0.111894124921677,-0.188681489657185,0,0
0.88,13.5387238740541,-0.152406677359627,-0.188884052419374,0,0
0.89,13.6567317683604,-0.242849512660806,-0.190860333369477,0,0
0.9,13.7425556914923,-0.152406677359627,-0.192836614319579,0,0
0.91,13.7747396626667,-0.242849512660806,-0.194812895269681,0,0
0.92,13.8712915761901,-0.307772604848743,-0.197566005857229,0,0
0.93,13.9249315281475,0.0245818027557917,-0.198981959867693,0,0
0.94,14.0000274608879,0.0245818027557917,-0.198736141840135,0,0
0.95,14.0214834416709,0.0245818027557917,-0.198490323812578,0,0
0.96,14.0858513840198,0.0245818027557917,-0.19824450578502,0,0
0.97,14.1073073648028,-0.152406677359627,-0.198883630158039,0,0
0.98,14.1394913359772,-0.152406677359627,-0.200407696931635,0,0
0.99,14.1931312879346,-0.242849512660806,-0.202383977881737,0,0
1,14.1931312879346,-0.287763698423059,-0.205037043937157,0,0
1.01,14.289683201458,-0.307772604848743,-0.208014725453516,0,0
1.02,14.3433231534154,-0.242849512660806,-0.210767836041063,0,0
1.03,14.3969631053729,-0.242849512660806,-0.213196331167671,0,0
1.04,14.4935150188962,0.0245818027557917,-0.214287669717196,0,0
1.05,14.4935150188962,-0.287763698423059,-0.215603579195533,0,0
1.06,14.5149709996792,-0.344319672144806,-0.218763996048372,0,0
1.07,14.4935150188962,-0.152406677359627,-0.221247627795894,0,0
1.08,14.5149709996792,-0.152406677359627,-0.222771694569491,0,0
1.09,14.5793389420281,-0.152406677359627,-0.224295761343087,0,0
1.1,14.6329788939855,-0.242849512660806,-0.226272042293189,0,0
1.11,14.66516286516,-0.152406677359627,-0.228248323243291,0,0
1.12,14.6866188459429,-0.242849512660806,-0.230224604193393,0,0
1.13,14.7509867882919,-0.242849512660806,-0.232653099320001,0,0
1.14,14.7831707594663,-0.242849512660806,-0.235081594446609,0,0
1.15,14.8582666922067,-0.242849512660806,-0.237510089573217,0,0
1.16,14.9119066441641,-0.152406677359627,-0.23948637052332,0,0
1.17,14.9440906153386,-0.242849512660806,-0.241462651473422,0,0
1.18,15.0620985096449,-0.287763698423059,-0.244115717528841,0,0
1.19,15.0942824808194,-0.344319672144806,-0.24727613438168,0,0
1.2,15.1479224327768,-0.287763698423059,-0.25043655123452,0,0
1.21,15.2122903751257,-0.242849512660806,-0.253089617289939,0,0
1.22,15.2981142982576,-0.242849512660806,-0.255518112416547,0,0
1.23,15.2981142982576,-0.307772604848743,-0.258271223004095,0,0
1.24,15.351754250215,-0.287763698423059,-0.261248904520454,0,0
1.25,15.3839382213895,-0.242849512660806,-0.263901970575873,0,0
1.26,15.4375781733469,-0.242849512660806,-0.266330465702481,0,0
1.27,15.4697621445214,-0.242849512660806,-0.268758960829089,0,0
1.28,15.5234020964788,-0.287763698423059,-0.271412026884509,0,0
1.29,15.5984980292192,-0.242849512660806,-0.274065092939928,0,0
1.3,15.6199540100021,-0.287763698423059,-0.276718158995347,0,0
1.31,15.7165059235255,-0.287763698423059,-0.279595795979578,0,0
1.32,15.7701458754829,-0.242849512660806,-0.282248862034997,0,0
1.33,15.7701458754829,-0.287763698423059,-0.284901928090416,0,0
1.34,15.8130578370489,-0.242849512660806,-0.287554994145836,0,0
1.35,15.8345138178318,-0.242849512660806,-0.289983489272444,0,0
1.36,15.8130578370489,-0.242849512660806,-0.292411984399052,0,0
1.37,15.7701458754829,-0.344319672144806,-0.29534783032308,0,0
1.38,15.8345138178318,-0.152406677359627,-0.297831462070602,0,0
1.39,15.8345138178318,-0.287763698423059,-0.300032313949515,0,0
1.4,15.8130578370489,-0.287763698423059,-0.302909950933746,0,0
1.41,15.8130578370489,-0.152406677359627,-0.30511080281266,0,0
1.42,15.8345138178318,-0.287763698423059,-0.307311654691573,0,0
1.43,15.8130578370489,-0.287763698423059,-0.310189291675804,0,0
1.44,15.8345138178318,-0.307772604848743,-0.313166973192163,0,0
1.45,15.8345138178318,-0.242849512660806,-0.31592008377971,0,0
1.46,15.8666977890063,-0.307772604848743,-0.318673194367258,0,0
1.47,15.8666977890063,-0.344319672144806,-0.321933655752226,0,0
1.48,15.8988817601807,-0.152406677359627,-0.324417287499748,0,0
1.49,15.8988817601807,-0.287763698423059,-0.326618139378661,0,0
1.5,15.9310657313552,-0.242849512660806,-0.329271205434081,0,0
1.51,15.8988817601807,-0.152406677359627,-0.331247486384183,0,0
1.52,15.8988817601807,-0.187466864989695,-0.332946854095929,0,0
1.53,15.8988817601807,-0.242849512660806,-0.335098435984182,0,0
1.54,15.8666977890063,-0.152406677359627,-0.337074716934284,0,0
1.55,15.8988817601807,-0.242849512660806,-0.339050997884386,0,0
1.56,15.8666977890063,-0.152406677359627,-0.341027278834488,0,0
1.57,15.9310657313552,-0.152406677359627,-0.342551345608085,0,0
1.58,15.9525217121382,-0.242849512660806,-0.344527626558187,0,0
1.59,15.9525217121382,-0.242849512660806,-0.346956121684795,0,0
1.6,15.9525217121382,-0.152406677359627,-0.348932402634897,0,0
1.61,15.9847056833126,-0.242849512660806,-0.350908683584999,0,0
1.62,16.0168896544871,-0.216932836689902,-0.353207595331753,0,0
1.63,16.0168896544871,-0.152406677359627,-0.355054292902,0,0
1.64,16.0168896544871,-0.152406677359627,-0.356578359675597,0,0
1.65,16.0705296064445,-0.242849512660806,-0.358554640625699,0,0
1.66,16.102713577619,-0.152406677359627,-0.360530921575801,0,0
1.67,16.0383456352701,-0.242849512660806,-0.362507202525903,0,0
1.68,16.102713577619,-0.152406677359627,-0.364483483476005,0,0
1.69,16.102713577619,-0.152406677359627,-0.366007550249602,0,0
1.7,16.1241695584019,0.111894124921677,-0.366210113011791,0,0
1.71,16.1563535295764,-0.287763698423059,-0.367089460879298,0,0
1.72,16.1241695584019,-0.152406677359627,-0.369290312758212,0,0
1.73,16.1885375007508,-0.152406677359627,-0.370814379531808,0,0
1.74,16.2207214719253,-0.216932836689902,-0.372661077102056,0,0
1.75,16.2421774527083,-0.152406677359627,-0.374507774672303,0,0
1.76,16.3172733854487,0.111894124921677,-0.374710337434493,0,0
1.77,16.2850894142742,-0.216932836689902,-0.375235530993334,0,0
1.78,16.3172733854487,-0.216932836689902,-0.377404859360233,0,0
1.79,16.3172733854487,-0.152406677359627,-0.379251556930481,0,0
1.8,16.3387293662316,-0.152406677359627,-0.380775623704077,0,0
1.81,16.3709133374061,-0.216932836689902,-0.382622321274325,0,0
1.82,16.3709133374061,-0.287763698423059,-0.38514580394989,0,0
1.83,16.4030973085805,-0.216932836689902,-0.387669286625454,0,0
1.84,16.4030973085805,-0.242849512660806,-0.389968198372208,0,0
1.85,16.3709133374061,-0.152406677359627,-0.39194447932231,0,0
1.86,16.4030973085805,-0.152406677359627,-0.393468546095906,0,0
1.87,16.4030973085805,-0.242849512660806,-0.395444827046009,0,0
1.88,16.435281279755,-0.152406677359627,-0.397421107996111,0,0
1.89,16.435281279755,-0.152406677359627,-0.398945174769707,0,0
1.9,16.435281279755,-0.152406677359627,-0.400469241543303,0,0
1.91,16.456737260538,-0.242849512660806,-0.402445522493405,0,0
1.92,16.456737260538,-0.152406677359627,-0.404421803443508,0,0
1.93,16.4889212317124,-0.152406677359627,-0.405945870217104,0,0
1.94,16.456737260538,-0.152406677359627,-0.4074699369907,0,0
1.95,16.456737260538,-0.152406677359627,-0.408994003764297,0,0
1.96,16.4889212317124,-0.152406677359627,-0.410518070537893,0,0
1.97,16.4889212317124,0.0245818027557917,-0.411157194910912,0,0
1.98,16.5211052028869,-0.152406677359627,-0.411796319283931,0,0
1.99,16.4889212317124,-0.152406677359627,-0.413320386057527,0,0
2,16.5425611836699,-0.152406677359627,-0.414844452831124,0,0
2.01,16.5425611836699,-0.152406677359627,-0.41636851960472,0,0
2.02,16.5425611836699,-0.242849512660806,-0.418344800554822,0,0
2.03,16.5747451548443,-0.242849512660806,-0.42077329568143,0,0
2.04,16.5211052028869,-0.152406677359627,-0.422749576631532,0,0
2.05,16.4889212317124,-0.242849512660806,-0.424725857581635,0,0
2.06,16.5747451548443,-0.287763698423059,-0.427378923637054,0,0
2.07,16.6069291260188,-0.287763698423059,-0.430256560621284,0,0
2.08,16.6283851068017,-0.152406677359627,-0.432457412500198,0,0
2.09,16.6069291260188,-0.152406677359627,-0.433981479273794,0,0
2.1,16.6069291260188,-0.152406677359627,-0.43550554604739,0,0
2.11,16.5211052028869,-0.152406677359627,-0.437029612820987,0,0
2.12,16.456737260538,0.111894124921677,-0.437232175583177,0,0
2.13,16.3387293662316,0.111894124921677,-0.43611323433396,0,0
2.14,16.3387293662316,0.19066293693981,-0.434600449024652,0,0
2.15,16.2421774527083,0.111894124921677,-0.433087663715345,0,0
2.16,16.2421774527083,0.111894124921677,-0.431968722466128,0,0
2.17,16.1241695584019,0.111894124921677,-0.430849781216911,0,0
2.18,16.1241695584019,0.19066293693981,-0.429336995907604,0,0
2.19,16.1563535295764,0.19066293693981,-0.427430366538206,0,0
2.2,16.1241695584019,0.19066293693981,-0.425523737168808,0,0
2.21,16.102713577619,0.111894124921677,-0.4240109518595,0,0
2.22,16.102713577619,0.111894124921677,-0.422892010610284,0,0
2.23,16.102713577619,-0.216932836689902,-0.423417204169125,0,0
2.24,16.0705296064445,-0.152406677359627,-0.425263901739372,0,0
2.25,16.0705296064445,-0.287763698423059,-0.427464753618286,0,0
2.26,16.0705296064445,-0.242849512660806,-0.430117819673705,0,0
2.27,16.0705296064445,-0.152406677359627,-0.432094100623807,0,0
2.28,16.0705296064445,-0.242849512660806,-0.434070381573909,0,0
2.29,16.0705296064445,-0.287763698423059,-0.436723447629329,0,0
2.3,16.0705296064445,-0.242849512660806,-0.439376513684748,0,0
2.31,16.0383456352701,-0.242849512660806,-0.441805008811356,0,0
2.32,16.0705296064445,-0.242849512660806,-0.444233503937964,0,0
2.33,16.102713577619,-0.242849512660806,-0.446661999064572,0,0
2.34,16.0705296064445,-0.242849512660806,-0.44909049419118,0,0
2.35,16.0705296064445,-0.242849512660806,-0.451518989317788,0,0
2.36,16.0168896544871,-0.242849512660806,-0.453947484444396,0,0
2.37,15.9847056833126,-0.242849512660806,-0.456375979571004,0,0
2.38,15.9847056833126,-0.242849512660806,-0.458804474697612,0,0
2.39,15.9310657313552,-0.287763698423059,-0.461457540753032,0,0
2.4,15.9525217121382,-0.242849512660806,-0.464110606808451,0,0
2.41,15.8988817601807,-0.152406677359627,-0.466086887758553,0,0
2.42,15.8345138178318,-0.152406677359627,-0.467610954532149,0,0
2.43,15.8130578370489,-0.152406677359627,-0.469135021305746,0,0
2.44,15.7165059235255,-0.242849512660806,-0.471111302255848,0,0
2.45,15.6199540100021,-0.242849512660806,-0.473539797382456,0,0
2.46,15.5984980292192,-0.242849512660806,-0.475968292509064,0,0
2.47,15.5663140580447,-0.242849512660806,-0.478396787635672,0,0
2.48,15.5234020964788,-0.242849512660806,-0.48082528276228,0,0
2.49,15.4697621445214,-0.152406677359627,-0.482801563712382,0,0
2.5,15.4375781733469,-0.242849512660806,-0.484777844662484,0,0
2.51,15.351754250215,-0.242849512660806,-0.487206339789092,0,0
2.52,15.2981142982576,-0.242849512660806,-0.4896348349157,0,0
2.53,15.2981142982576,-0.242849512660806,-0.492063330042308,0,0
2.54,15.1801064039513,-0.242849512660806,-0.494491825168916,0,0
2.55,15.1479224327768,-0.307772604848743,-0.497244935756464,0,0
2.56,15.0942824808194,-0.152406677359627,-0.499545832167506,0,0
2.57,15.0942824808194,-0.152406677359627,-0.501069898941102,0,0
2.58,15.0942824808194,-0.152406677359627,-0.502593965714699,0,0
2.59,15.0620985096449,-0.287763698423059,-0.504794817593612,0,0
2.6,15.0299145384705,0.111894124921677,-0.505674165461119,0,0
2.61,15.0084585576875,-0.152406677359627,-0.505876728223309,0,0
2.62,15.0299145384705,-0.152406677359627,-0.507400794996905,0,0
2.63,14.976274586513,-0.152406677359627,-0.508924861770501,0,0
2.64,14.976274586513,-0.152406677359627,-0.510448928544098,0,0
2.65,14.976274586513,-0.152406677359627,-0.511972995317694,0,0
2.66,14.9119066441641,0.111894124921677,-0.512175558079884,0,0
2.67,14.9119066441641,-0.287763698423059,-0.51305490594739,0,0
2.68,14.8904506633812,-0.152406677359627,-0.515255757826304,0,0
2.69,14.8904506633812,-0.152406677359627,-0.5167798245999,0,0
2.7,14.8582666922067,-0.242849512660806,-0.518756105550002,0,0
2.71,14.8582666922067,-0.242849512660806,-0.52118460067661,0,0
2.72,14.7831707594663,-0.287763698423059,-0.52383766673203,0,0
2.73,14.7831707594663,-0.152406677359627,-0.526038518610943,0,0
2.74,14.8260827210323,-0.152406677359627,-0.527562585384539,0,0
2.75,14.7831707594663,-0.152406677359627,-0.529086652158136,0,0
2.76,14.7509867882919,-0.152406677359627,-0.530610718931732,0,0
2.77,14.6866188459429,0.0245818027557917,-0.531249843304751,0,0
2.78,14.6329788939855,0.0245818027557917,-0.531004025277193,0,0
2.79,14.6007949228111,-0.152406677359627,-0.531643149650212,0,0
2.8,14.5471549708536,0.0245818027557917,-0.532282274023231,0,0
2.81,14.5471549708536,-0.242849512660806,-0.533373612572757,0,0
2.82,14.4935150188962,-0.152406677359627,-0.535349893522859,0,0
2.83,14.4291470765473,-0.242849512660806,-0.537326174472961,0,0
2.84,14.3969631053729,-0.152406677359627,-0.539302455423063,0,0
2.85,14.3969631053729,-0.152406677359627,-0.540826522196659,0,0
2.86,14.3433231534154,-0.152406677359627,-0.542350588970256,0,0
2.87,14.3969631053729,-0.242849512660806,-0.544326869920358,0,0
2.88,14.3755071245899,-0.152406677359627,-0.54630315087046,0,0
2.89,14.3433231534154,0.111894124921677,-0.54650571363265,0,0
2.9,14.289683201458,0.19066293693981,-0.544992928323342,0,0
2.91,14.1716753071517,-0.152406677359627,-0.544801647025441,0,0
2.92,14.0858513840198,0.19066293693981,-0.54461036572754,0,0
2.93,13.9678434897135,0.268515262170148,-0.542314474731991,0,0
2.94,13.8927475569731,0.111894124921677,-0.540412427796531,0,0
2.95,13.7961956434497,0.19066293693981,-0.538899642487224,0,0
2.96,13.6567317683604,0.111894124921677,-0.537386857177917,0,0
2.97,13.6567317683604,0.111894124921677,-0.5362679159287,0,0
2.98,13.6245477971859,-0.152406677359627,-0.53647047869089,0,0
2.99,13.5387238740541,-0.152406677359627,-0.537994545464486,0,0
3,13.5065399028796,-0.152406677359627,-0.539518612238082,0,0
3.01,13.5387238740541,-0.152406677359627,-0.541042679011678,0,0
3.02,13.4743559317051,-0.152406677359627,-0.542566745785275,0,0
3.03,13.5065399028796,-0.152406677359627,-0.544090812558871,0,0
3.04,13.5065399028796,-0.287763698423059,-0.546291664437784,0,0
3.05,13.4743559317051,-0.242849512660806,-0.548944730493204,0,0
3.06,13.4207159797477,0.111894124921677,-0.549599507431899,0,0
3.07,13.3670760277903,0.111894124921677,-0.548480566182683,0,0
3.08,13.3348920566158,-0.152406677359627,-0.548683128944872,0,0
3.09,13.3027080854414,-0.152406677359627,-0.550207195718469,0,0
3.1,13.249068133484,0.111894124921677,-0.550409758480659,0,0
3.11,13.249068133484,-0.152406677359627,-0.550612321242848,0,0
3.12,13.249068133484,0.111894124921677,-0.550814884005038,0,0
